3600.000000	0.132060   
3599.000000	0.127458   
3598.000000	0.119400   
3597.000000	0.117969   
3596.000000	0.115966   
3595.000000	0.108075   
3594.000000	0.100350   
3593.000000	0.096535   
3592.000000	0.091052   
3591.000000	0.079488   
3590.000000	0.068402   
3589.000000	0.070667   
3588.000000	0.094699   
3587.000000	0.138235   
3586.000000	0.188159   
3585.000000	0.225520   
3584.000000	0.235223   
3583.000000	0.214815   
3582.000000	0.179409   
3581.000000	0.154328   
3580.000000	0.152635   
3579.000000	0.164866   
3578.000000	0.177240   
3577.000000	0.188350   
3576.000000	0.199270   
3575.000000	0.208067   
3574.000000	0.223946   
3573.000000	0.256299   
3572.000000	0.282502   
3571.000000	0.269532   
3570.000000	0.233507   
3569.000000	0.225281   
3568.000000	0.251913   
3567.000000	0.272083   
3566.000000	0.273394   
3565.000000	0.285935   
3564.000000	0.316214   
3563.000000	0.333142   
3562.000000	0.323677   
3561.000000	0.304913   
3560.000000	0.286483   
3559.000000	0.271105   
3558.000000	0.275993   
3557.000000	0.306439   
3556.000000	0.332403   
3555.000000	0.332260   
3554.000000	0.329637   
3553.000000	0.349593   
3552.000000	0.373005   
3551.000000	0.368618   
3550.000000	0.342607   
3549.000000	0.323534   
3548.000000	0.321149   
3547.000000	0.325369   
3546.000000	0.330543   
3545.000000	0.341582   
3544.000000	0.363588   
3543.000000	0.392270   
3542.000000	0.414443   
3541.000000	0.417733   
3540.000000	0.406575   
3539.000000	0.401735   
3538.000000	0.418543   
3537.000000	0.450015   
3536.000000	0.475168   
3535.000000	0.482964   
3534.000000	0.484395   
3533.000000	0.497984   
3532.000000	0.524306   
3531.000000	0.544428   
3530.000000	0.551772   
3529.000000	0.565743   
3528.000000	0.595998   
3527.000000	0.618314   
3526.000000	0.612950   
3525.000000	0.599551   
3524.000000	0.603938   
3523.000000	0.621986   
3522.000000	0.644397   
3521.000000	0.676488   
3520.000000	0.705289   
3519.000000	0.697445   
3518.000000	0.656080   
3517.000000	0.629425   
3516.000000	0.642681   
3515.000000	0.672364   
3514.000000	0.699400   
3513.000000	0.732159   
3512.000000	0.769734   
3511.000000	0.794410   
3510.000000	0.807523   
3509.000000	0.827741   
3508.000000	0.854468   
3507.000000	0.870084   
3506.000000	0.874781   
3505.000000	0.885581   
3504.000000	0.905871   
3503.000000	0.925016   
3502.000000	0.942564   
3501.000000	0.972986   
3500.000000	1.025104   
3499.000000	1.087284   
3498.000000	1.135444   
3497.000000	1.153588   
3496.000000	1.150178   
3495.000000	1.153707   
3494.000000	1.185441   
3493.000000	1.236557   
3492.000000	1.280927   
3491.000000	1.308155   
3490.000000	1.328945   
3489.000000	1.348733   
3488.000000	1.357579   
3487.000000	1.352524   
3486.000000	1.349592   
3485.000000	1.365542   
3484.000000	1.399445   
3483.000000	1.436758   
3482.000000	1.464104   
3481.000000	1.477527   
3480.000000	1.482582   
3479.000000	1.489734   
3478.000000	1.509141   
3477.000000	1.545619   
3476.000000	1.592111   
3475.000000	1.632404   
3474.000000	1.659274   
3473.000000	1.681566   
3472.000000	1.702928   
3471.000000	1.712632   
3470.000000	1.712059   
3469.000000	1.726126   
3468.000000	1.767420   
3467.000000	1.816582   
3466.000000	1.856160   
3465.000000	1.892304   
3464.000000	1.928257   
3463.000000	1.953411   
3462.000000	1.973295   
3461.000000	2.012014   
3460.000000	2.071309   
3459.000000	2.122807   
3458.000000	2.149128   
3457.000000	2.162289   
3456.000000	2.177500   
3455.000000	2.197241   
3454.000000	2.222824   
3453.000000	2.257990   
3452.000000	2.299046   
3451.000000	2.340984   
3450.000000	2.388119   
3449.000000	2.443647   
3448.000000	2.497124   
3447.000000	2.538895   
3446.000000	2.573084   
3445.000000	2.602815   
3444.000000	2.619457   
3443.000000	2.624058   
3442.000000	2.636075   
3441.000000	2.663350   
3440.000000	2.686285   
3439.000000	2.691006   
3438.000000	2.692580   
3437.000000	2.710890   
3436.000000	2.744889   
3435.000000	2.782726   
3434.000000	2.813625   
3433.000000	2.824115   
3432.000000	2.807331   
3431.000000	2.781105   
3430.000000	2.775549   
3429.000000	2.799177   
3428.000000	2.830052   
3427.000000	2.842569   
3426.000000	2.832913   
3425.000000	2.816677   
3424.000000	2.808523   
3423.000000	2.810454   
3422.000000	2.819991   
3421.000000	2.836966   
3420.000000	2.852034   
3419.000000	2.844357   
3418.000000	2.809000   
3417.000000	2.772116   
3416.000000	2.758646   
3415.000000	2.761220   
3414.000000	2.757263   
3413.000000	2.740025   
3412.000000	2.716946   
3411.000000	2.696895   
3410.000000	2.691936   
3409.000000	2.709388   
3408.000000	2.734398   
3407.000000	2.740430   
3406.000000	2.723789   
3405.000000	2.710652   
3404.000000	2.722764   
3403.000000	2.754044   
3402.000000	2.783489   
3401.000000	2.797079   
3400.000000	2.794528   
3399.000000	2.785587   
3398.000000	2.781081   
3397.000000	2.780294   
3396.000000	2.771782   
3395.000000	2.756762   
3394.000000	2.757215   
3393.000000	2.782392   
3392.000000	2.807569   
3391.000000	2.809762   
3390.000000	2.799129   
3389.000000	2.790546   
3388.000000	2.777624   
3387.000000	2.763295   
3386.000000	2.771830   
3385.000000	2.800965   
3384.000000	2.812576   
3383.000000	2.798295   
3382.000000	2.795863   
3381.000000	2.820253   
3380.000000	2.839612   
3379.000000	2.836799   
3378.000000	2.836036   
3377.000000	2.851462   
3376.000000	2.860832   
3375.000000	2.845215   
3374.000000	2.818775   
3373.000000	2.807712   
3372.000000	2.818965   
3371.000000	2.837586   
3370.000000	2.845406   
3369.000000	2.839446   
3368.000000	2.831006   
3367.000000	2.831435   
3366.000000	2.845406   
3365.000000	2.871727   
3364.000000	2.897691   
3363.000000	2.904534   
3362.000000	2.891445   
3361.000000	2.879786   
3360.000000	2.879619   
3359.000000	2.875208   
3358.000000	2.857160   
3357.000000	2.841687   
3356.000000	2.841281   
3355.000000	2.847385   
3354.000000	2.855968   
3353.000000	2.875804   
3352.000000	2.902126   
3351.000000	2.916264   
3350.000000	2.918863   
3349.000000	2.927422   
3348.000000	2.941465   
3347.000000	2.948141   
3346.000000	2.956748   
3345.000000	2.983760   
3344.000000	3.012514   
3343.000000	3.013491   
3342.000000	2.993130   
3341.000000	2.980589   
3340.000000	2.982759   
3339.000000	2.993869   
3338.000000	3.022933   
3337.000000	3.069329   
3336.000000	3.101992   
3335.000000	3.103137   
3334.000000	3.097867   
3333.000000	3.105831   
3332.000000	3.109812   
3331.000000	3.101921   
3330.000000	3.106284   
3329.000000	3.127241   
3328.000000	3.133130   
3327.000000	3.117108   
3326.000000	3.114843   
3325.000000	3.142046   
3324.000000	3.171086   
3323.000000	3.183579   
3322.000000	3.198814   
3321.000000	3.236222   
3320.000000	3.285908   
3319.000000	3.324842   
3318.000000	3.340840   
3317.000000	3.335118   
3316.000000	3.314971   
3315.000000	3.290319   
3314.000000	3.275442   
3313.000000	3.284454   
3312.000000	3.313064   
3311.000000	3.335905   
3310.000000	3.340101   
3309.000000	3.344917   
3308.000000	3.368711   
3307.000000	3.398942   
3306.000000	3.418731   
3305.000000	3.431653   
3304.000000	3.437185   
3303.000000	3.423333   
3302.000000	3.405117   
3301.000000	3.418159   
3300.000000	3.454375   
3299.000000	3.465938   
3298.000000	3.445625   
3297.000000	3.435659   
3296.000000	3.447389   
3295.000000	3.449773   
3294.000000	3.440523   
3293.000000	3.451347   
3292.000000	3.480076   
3291.000000	3.495502   
3290.000000	3.501415   
3289.000000	3.525757   
3288.000000	3.561711   
3287.000000	3.584885   
3286.000000	3.603029   
3285.000000	3.629016   
3284.000000	3.640484   
3283.000000	3.622031   
3282.000000	3.611397   
3281.000000	3.651857   
3280.000000	3.728580   
3279.000000	3.790473   
3278.000000	3.811740   
3277.000000	3.805637   
3276.000000	3.796863   
3275.000000	3.801631   
3274.000000	3.820800   
3273.000000	3.841280   
3272.000000	3.850173   
3271.000000	3.850364   
3270.000000	3.859233   
3269.000000	3.892064   
3268.000000	3.941226   
3267.000000	3.975033   
3266.000000	3.967142   
3265.000000	3.925418   
3264.000000	3.879928   
3263.000000	3.848385   
3262.000000	3.834319   
3261.000000	3.842401   
3260.000000	3.867673   
3259.000000	3.881764   
3258.000000	3.859853   
3257.000000	3.809881   
3256.000000	3.754878   
3255.000000	3.698945   
3254.000000	3.638100   
3253.000000	3.582429   
3252.000000	3.544926   
3251.000000	3.521370   
3250.000000	3.500890   
3249.000000	3.478932   
3248.000000	3.449797   
3247.000000	3.408789   
3246.000000	3.368115   
3245.000000	3.341007   
3244.000000	3.307223   
3243.000000	3.234362   
3242.000000	3.135490   
3241.000000	3.061914   
3240.000000	3.036999   
3239.000000	3.041005   
3238.000000	3.057074   
3237.000000	3.082036   
3236.000000	3.097391   
3235.000000	3.081464   
3234.000000	3.046607   
3233.000000	3.021740   
3232.000000	3.009629   
3231.000000	2.997231   
3230.000000	2.988243   
3229.000000	2.986955   
3228.000000	2.976870   
3227.000000	2.948021   
3226.000000	2.919697   
3225.000000	2.906894   
3224.000000	2.896571   
3223.000000	2.877736   
3222.000000	2.862238   
3221.000000	2.854132   
3220.000000	2.835702   
3219.000000	2.803277   
3218.000000	2.780795   
3217.000000	2.782535   
3216.000000	2.792310   
3215.000000	2.789878   
3214.000000	2.774333   
3213.000000	2.755022   
3212.000000	2.738451   
3211.000000	2.728581   
3210.000000	2.726840   
3209.000000	2.728605   
3208.000000	2.725005   
3207.000000	2.711272   
3206.000000	2.692222   
3205.000000	2.677655   
3204.000000	2.667903   
3203.000000	2.649331   
3202.000000	2.611136   
3201.000000	2.562236   
3200.000000	2.520489   
3199.000000	2.495718   
3198.000000	2.493166   
3197.000000	2.513146   
3196.000000	2.533769   
3195.000000	2.523398   
3194.000000	2.485847   
3193.000000	2.456784   
3192.000000	2.444171   
3191.000000	2.423787   
3190.000000	2.400636   
3189.000000	2.407956   
3188.000000	2.436566   
3187.000000	2.439832   
3186.000000	2.414560   
3185.000000	2.402567   
3184.000000	2.411365   
3183.000000	2.408909   
3182.000000	2.391362   
3181.000000	2.382493   
3180.000000	2.377581   
3179.000000	2.356886   
3178.000000	2.334833   
3177.000000	2.334809   
3176.000000	2.342081   
3175.000000	2.334332   
3174.000000	2.325987   
3173.000000	2.335691   
3172.000000	2.345967   
3171.000000	2.335238   
3170.000000	2.314782   
3169.000000	2.303576   
3168.000000	2.298545   
3167.000000	2.292656   
3166.000000	2.294778   
3165.000000	2.311825   
3164.000000	2.331376   
3163.000000	2.337551   
3162.000000	2.333354   
3161.000000	2.337098   
3160.000000	2.353596   
3159.000000	2.360057   
3158.000000	2.333736   
3157.000000	2.288866   
3156.000000	2.263021   
3155.000000	2.271151   
3154.000000	2.293968   
3153.000000	2.309584   
3152.000000	2.311778   
3151.000000	2.301239   
3150.000000	2.282094   
3149.000000	2.267193   
3148.000000	2.268362   
3147.000000	2.282691   
3146.000000	2.298498   
3145.000000	2.307915   
3144.000000	2.307271   
3143.000000	2.301573   
3142.000000	2.314424   
3141.000000	2.366805   
3140.000000	2.435708   
3139.000000	2.471375   
3138.000000	2.465677   
3137.000000	2.460289   
3136.000000	2.475404   
3135.000000	2.486014   
3134.000000	2.478599   
3133.000000	2.471733   
3132.000000	2.470827   
3131.000000	2.463865   
3130.000000	2.463388   
3129.000000	2.491283   
3128.000000	2.528786   
3127.000000	2.542448   
3126.000000	2.544021   
3125.000000	2.564668   
3124.000000	2.592992   
3123.000000	2.599740   
3122.000000	2.596449   
3121.000000	2.611899   
3120.000000	2.639532   
3119.000000	2.655172   
3118.000000	2.660369   
3117.000000	2.670574   
3116.000000	2.688097   
3115.000000	2.713775   
3114.000000	2.754068   
3113.000000	2.795696   
3112.000000	2.808332   
3111.000000	2.789568   
3110.000000	2.777171   
3109.000000	2.802681   
3108.000000	2.855014   
3107.000000	2.899932   
3106.000000	2.917242   
3105.000000	2.910876   
3104.000000	2.895474   
3103.000000	2.881264   
3102.000000	2.872276   
3101.000000	2.872991   
3100.000000	2.887225   
3099.000000	2.908968   
3098.000000	2.924370   
3097.000000	2.924108   
3096.000000	2.909421   
3095.000000	2.889132   
3094.000000	2.880930   
3093.000000	2.900981   
3092.000000	2.936220   
3091.000000	2.949309   
3090.000000	2.932524   
3089.000000	2.921080   
3088.000000	2.933645   
3087.000000	2.943754   
3086.000000	2.935314   
3085.000000	2.927899   
3084.000000	2.921009   
3083.000000	2.884650   
3082.000000	2.828621   
3081.000000	2.805733   
3080.000000	2.826046   
3079.000000	2.841758   
3078.000000	2.829408   
3077.000000	2.811908   
3076.000000	2.797484   
3075.000000	2.771878   
3074.000000	2.748894   
3073.000000	2.758669   
3072.000000	2.792096   
3071.000000	2.815222   
3070.000000	2.824044   
3069.000000	2.834630   
3068.000000	2.840161   
3067.000000	2.823519   
3066.000000	2.793836   
3065.000000	2.770614   
3064.000000	2.754950   
3063.000000	2.741193   
3062.000000	2.736139   
3061.000000	2.745103   
3060.000000	2.758526   
3059.000000	2.768874   
3058.000000	2.781176   
3057.000000	2.796244   
3056.000000	2.804112   
3055.000000	2.802562   
3054.000000	2.806520   
3053.000000	2.831172   
3052.000000	2.873754   
3051.000000	2.915906   
3050.000000	2.938914   
3049.000000	2.937841   
3048.000000	2.922749   
3047.000000	2.909493   
3046.000000	2.911067   
3045.000000	2.931404   
3044.000000	2.958250   
3043.000000	2.970242   
3042.000000	2.964663   
3041.000000	2.967405   
3040.000000	2.997279   
3039.000000	3.038525   
3038.000000	3.068590   
3037.000000	3.092694   
3036.000000	3.123879   
3035.000000	3.157138   
3034.000000	3.187823   
3033.000000	3.228616   
3032.000000	3.282070   
3031.000000	3.332686   
3030.000000	3.381133   
3029.000000	3.444552   
3028.000000	3.509783   
3027.000000	3.543472   
3026.000000	3.556704   
3025.000000	3.596401   
3024.000000	3.668665   
3023.000000	3.738474   
3022.000000	3.802180   
3021.000000	3.887033   
3020.000000	3.984260   
3019.000000	4.058361   
3018.000000	4.114365   
3017.000000	4.183316   
3016.000000	4.262924   
3015.000000	4.337477   
3014.000000	4.427456   
3013.000000	4.553699   
3012.000000	4.689478   
3011.000000	4.801869   
3010.000000	4.905080   
3009.000000	5.021071   
3008.000000	5.134367   
3007.000000	5.223226   
3006.000000	5.300903   
3005.000000	5.388212   
3004.000000	5.482935   
3003.000000	5.575609   
3002.000000	5.672645   
3001.000000	5.781865   
3000.000000	5.900144   
2999.000000	6.022596   
2998.000000	6.155610   
2997.000000	6.311249   
2996.000000	6.488299   
2995.000000	6.665563   
2994.000000	6.826853   
2993.000000	6.988263   
2992.000000	7.179427   
2991.000000	7.407069   
2990.000000	7.660508   
2989.000000	7.939720   
2988.000000	8.235239   
2987.000000	8.512806   
2986.000000	8.756780   
2985.000000	9.004354   
2984.000000	9.286427   
2983.000000	9.581565   
2982.000000	9.867453   
2981.000000	10.166764  
2980.000000	10.490274  
2979.000000	10.798335  
2978.000000	11.065196  
2977.000000	11.322212  
2976.000000	11.597108  
2975.000000	11.873030  
2974.000000	12.138152  
2973.000000	12.407922  
2972.000000	12.680435  
2971.000000	12.927889  
2970.000000	13.150167  
2969.000000	13.376140  
2968.000000	13.611054  
2967.000000	13.835525  
2966.000000	14.051079  
2965.000000	14.269614  
2964.000000	14.464163  
2963.000000	14.575958  
2962.000000	14.569115  
2961.000000	14.437389  
2960.000000	14.186120  
2959.000000	13.835573  
2958.000000	13.444519  
2957.000000	13.078546  
2956.000000	12.779712  
2955.000000	12.560367  
2954.000000	12.430858  
2953.000000	12.399482  
2952.000000	12.474083  
2951.000000	12.661457  
2950.000000	12.961959  
2949.000000	13.356161  
2948.000000	13.813877  
2947.000000	14.323544  
2946.000000	14.897608  
2945.000000	15.549135  
2944.000000	16.267848  
2943.000000	17.025065  
2942.000000	17.788624  
2941.000000	18.529319  
2940.000000	19.215035  
2939.000000	19.805026  
2938.000000	20.260548  
2937.000000	20.554780  
2936.000000	20.672512  
2935.000000	20.598101  
2934.000000	20.333576  
2933.000000	19.903707  
2932.000000	19.345450  
2931.000000	18.680047  
2930.000000	17.940044  
2929.000000	17.171144  
2928.000000	16.413331  
2927.000000	15.672898  
2926.000000	14.969515  
2925.000000	14.336967  
2924.000000	13.782858  
2923.000000	13.268351  
2922.000000	12.780189  
2921.000000	12.346887  
2920.000000	11.981868  
2919.000000	11.663055  
2918.000000	11.394119  
2917.000000	11.207652  
2916.000000	11.098670  
2915.000000	11.021232  
2914.000000	10.962581  
2913.000000	10.945653  
2912.000000	10.966658  
2911.000000	10.988044  
2910.000000	11.000108  
2909.000000	11.010503  
2908.000000	11.011147  
2907.000000	10.992646  
2906.000000	10.991311  
2905.000000	11.040687  
2904.000000	11.131024  
2903.000000	11.233377  
2902.000000	11.361193  
2901.000000	11.539626  
2900.000000	11.767220  
2899.000000	12.019681  
2898.000000	12.292146  
2897.000000	12.594962  
2896.000000	12.933802  
2895.000000	13.298201  
2894.000000	13.672804  
2893.000000	14.047980  
2892.000000	14.424872  
2891.000000	14.807891  
2890.000000	15.199065  
2889.000000	15.598011  
2888.000000	16.000866  
2887.000000	16.395115  
2886.000000	16.768050  
2885.000000	17.113327  
2884.000000	17.422008  
2883.000000	17.665147  
2882.000000	17.819690  
2881.000000	17.886567  
2880.000000	17.879247  
2879.000000	17.786002  
2878.000000	17.597556  
2877.000000	17.326569  
2876.000000	17.000102  
2875.000000	16.621422  
2874.000000	16.200900  
2873.000000	15.759086  
2872.000000	15.301585  
2871.000000	14.798927  
2870.000000	14.248514  
2869.000000	13.681888  
2868.000000	13.114380  
2867.000000	12.526631  
2866.000000	11.935615  
2865.000000	11.399388  
2864.000000	10.938405  
2863.000000	10.508441  
2862.000000	10.076904  
2861.000000	9.659266   
2860.000000	9.276056   
2859.000000	8.924531   
2858.000000	8.601737   
2857.000000	8.298730   
2856.000000	7.984209   
2855.000000	7.637095   
2854.000000	7.292532   
2853.000000	6.998729   
2852.000000	6.760764   
2851.000000	6.554412   
2850.000000	6.380414   
2849.000000	6.242394   
2848.000000	6.121397   
2847.000000	5.994582   
2846.000000	5.870032   
2845.000000	5.755567   
2844.000000	5.641460   
2843.000000	5.524182   
2842.000000	5.430150   
2841.000000	5.376100   
2840.000000	5.341148   
2839.000000	5.285859   
2838.000000	5.200576   
2837.000000	5.113840   
2836.000000	5.058240   
2835.000000	5.031800   
2834.000000	5.007958   
2833.000000	4.974603   
2832.000000	4.942560   
2831.000000	4.918146   
2830.000000	4.896974   
2829.000000	4.885792   
2828.000000	4.900193   
2827.000000	4.939842   
2826.000000	4.988932   
2825.000000	5.035114   
2824.000000	5.066752   
2823.000000	5.070376   
2822.000000	5.056357   
2821.000000	5.059456   
2820.000000	5.086183   
2819.000000	5.095434   
2818.000000	5.059981   
2817.000000	5.006217   
2816.000000	4.963278   
2815.000000	4.918575   
2814.000000	4.857277   
2813.000000	4.791736   
2812.000000	4.725956   
2811.000000	4.645180   
2810.000000	4.560256   
2809.000000	4.501461   
2808.000000	4.459547   
2807.000000	4.395866   
2806.000000	4.311442   
2805.000000	4.240155   
2804.000000	4.178762   
2803.000000	4.091930   
2802.000000	3.982496   
2801.000000	3.889727   
2800.000000	3.826880   
2799.000000	3.774189   
2798.000000	3.723859   
2797.000000	3.682327   
2796.000000	3.644347   
2795.000000	3.601956   
2794.000000	3.562211   
2793.000000	3.525805   
2792.000000	3.476977   
2791.000000	3.413844   
2790.000000	3.362941   
2789.000000	3.339815   
2788.000000	3.327965   
2787.000000	3.310561   
2786.000000	3.295040   
2785.000000	3.289937   
2784.000000	3.285598   
2783.000000	3.269600   
2782.000000	3.247475   
2781.000000	3.234744   
2780.000000	3.234839   
2779.000000	3.233909   
2778.000000	3.222322   
2777.000000	3.212022   
2776.000000	3.213000   
2775.000000	3.205776   
2774.000000	3.170967   
2773.000000	3.131318   
2772.000000	3.122019   
2771.000000	3.137826   
2770.000000	3.154540   
2769.000000	3.172230   
2768.000000	3.188490   
2767.000000	3.172087   
2766.000000	3.115487   
2765.000000	3.067708   
2764.000000	3.064298   
2763.000000	3.075885   
2762.000000	3.069591   
2761.000000	3.062891   
2760.000000	3.075551   
2759.000000	3.087377   
2758.000000	3.079223   
2757.000000	3.065276   
2756.000000	3.059625   
2755.000000	3.058242   
2754.000000	3.065705   
2753.000000	3.093624   
2752.000000	3.126049   
2751.000000	3.128695   
2750.000000	3.097486   
2749.000000	3.062963   
2748.000000	3.049397   
2747.000000	3.061890   
2746.000000	3.102946   
2745.000000	3.165531   
2744.000000	3.220868   
2743.000000	3.246665   
2742.000000	3.254508   
2741.000000	3.262376   
2740.000000	3.266000   
2739.000000	3.261923   
2738.000000	3.266239   
2737.000000	3.280973   
2736.000000	3.279829   
2735.000000	3.254985   
2734.000000	3.242635   
2733.000000	3.273963   
2732.000000	3.330397   
2731.000000	3.370451   
2730.000000	3.380990   
2729.000000	3.382635   
2728.000000	3.396081   
2727.000000	3.417134   
2726.000000	3.427696   
2725.000000	3.424286   
2724.000000	3.423857   
2723.000000	3.439950   
2722.000000	3.468084   
2721.000000	3.496217   
2720.000000	3.515720   
2719.000000	3.520011   
2718.000000	3.510737   
2717.000000	3.501796   
2716.000000	3.501129   
2715.000000	3.498625   
2714.000000	3.491091   
2713.000000	3.491067   
2712.000000	3.491139   
2711.000000	3.457951   
2710.000000	3.392720   
2709.000000	3.345346   
2708.000000	3.333091   
2707.000000	3.305411   
2706.000000	3.230690   
2705.000000	3.147959   
2704.000000	3.095579   
2703.000000	3.059911   
2702.000000	3.025174   
2701.000000	2.997708   
2700.000000	2.961945   
2699.000000	2.891445   
2698.000000	2.812767   
2697.000000	2.778458   
2696.000000	2.779603   
2695.000000	2.762651   
2694.000000	2.721905   
2693.000000	2.695846   
2692.000000	2.689218   
2691.000000	2.674603   
2690.000000	2.652692   
2689.000000	2.643370   
2688.000000	2.637410   
2687.000000	2.607297   
2686.000000	2.553963   
2685.000000	2.503752   
2684.000000	2.472639   
2683.000000	2.454900   
2682.000000	2.439641   
2681.000000	2.423048   
2680.000000	2.408695   
2679.000000	2.398133   
2678.000000	2.388811   
2677.000000	2.383494   
2676.000000	2.387309   
2675.000000	2.391481   
2674.000000	2.380204   
2673.000000	2.356386   
2672.000000	2.334260   
2671.000000	2.311420   
2670.000000	2.281093   
2669.000000	2.264451   
2668.000000	2.284336   
2667.000000	2.315592   
2666.000000	2.311468   
2665.000000	2.270865   
2664.000000	2.233266   
2663.000000	2.218723   
2662.000000	2.215099   
2661.000000	2.213406   
2660.000000	2.215409   
2659.000000	2.219867   
2658.000000	2.231049   
2657.000000	2.263116   
2656.000000	2.311992   
2655.000000	2.346587   
2654.000000	2.346849   
2653.000000	2.324414   
2652.000000	2.290701   
2651.000000	2.244782   
2650.000000	2.204632   
2649.000000	2.200889   
2648.000000	2.225542   
2647.000000	2.236533   
2646.000000	2.224016   
2645.000000	2.220368   
2644.000000	2.238035   
2643.000000	2.252840   
2642.000000	2.253556   
2641.000000	2.255105   
2640.000000	2.259683   
2639.000000	2.253627   
2638.000000	2.239823   
2637.000000	2.232003   
2636.000000	2.226996   
2635.000000	2.217888   
2634.000000	2.216958   
2633.000000	2.231311   
2632.000000	2.241826   
2631.000000	2.237582   
2630.000000	2.237987   
2629.000000	2.252721   
2628.000000	2.256584   
2627.000000	2.233362   
2626.000000	2.209067   
2625.000000	2.213478   
2624.000000	2.235817   
2623.000000	2.243113   
2622.000000	2.226543   
2621.000000	2.210068   
2620.000000	2.214550   
2619.000000	2.227044   
2618.000000	2.220153   
2617.000000	2.193403   
2616.000000	2.170681   
2615.000000	2.159571   
2614.000000	2.146053   
2613.000000	2.127337   
2612.000000	2.115488   
2611.000000	2.109885   
2610.000000	2.100849   
2609.000000	2.093815   
2608.000000	2.097487   
2607.000000	2.100586   
2606.000000	2.090620   
2605.000000	2.077674   
2604.000000	2.072167   
2603.000000	2.065110   
2602.000000	2.055120   
2601.000000	2.062273   
2600.000000	2.087545   
2599.000000	2.097868   
2598.000000	2.078795   
2597.000000	2.057862   
2596.000000	2.052402   
2595.000000	2.046799   
2594.000000	2.038431   
2593.000000	2.046084   
2592.000000	2.058887   
2591.000000	2.043628   
2590.000000	2.008914   
2589.000000	1.995444   
2588.000000	2.002811   
2587.000000	1.993846   
2586.000000	1.966524   
2585.000000	1.952791   
2584.000000	1.955127   
2583.000000	1.950383   
2582.000000	1.941299   
2581.000000	1.947236   
2580.000000	1.960468   
2579.000000	1.959300   
2578.000000	1.947665   
2577.000000	1.945042   
2576.000000	1.956319   
2575.000000	1.977205   
2574.000000	2.008295   
2573.000000	2.042961   
2572.000000	2.059412   
2571.000000	2.041769   
2570.000000	1.999282   
2569.000000	1.956558   
2568.000000	1.932621   
2567.000000	1.932597   
2566.000000	1.951956   
2565.000000	1.983118   
2564.000000	2.015709   
2563.000000	2.034592   
2562.000000	2.029371   
2561.000000	2.007651   
2560.000000	1.984262   
2559.000000	1.963710   
2558.000000	1.948738   
2557.000000	1.953744   
2556.000000	1.980519   
2555.000000	1.998019   
2554.000000	1.984596   
2553.000000	1.968574   
2552.000000	1.983451   
2551.000000	2.012681   
2550.000000	2.021431   
2549.000000	2.010202   
2548.000000	1.993703   
2547.000000	1.970076   
2546.000000	1.953387   
2545.000000	1.978254   
2544.000000	2.033329   
2543.000000	2.057218   
2542.000000	2.034187   
2541.000000	2.018761   
2540.000000	2.040529   
2539.000000	2.069306   
2538.000000	2.092909   
2537.000000	2.135753   
2536.000000	2.185106   
2535.000000	2.187967   
2534.000000	2.135705   
2533.000000	2.079701   
2532.000000	2.055358   
2531.000000	2.051162   
2530.000000	2.052998   
2529.000000	2.065944   
2528.000000	2.091860   
2527.000000	2.120804   
2526.000000	2.143359   
2525.000000	2.154946   
2524.000000	2.151203   
2523.000000	2.129340   
2522.000000	2.093744   
2521.000000	2.057719   
2520.000000	2.035331   
2519.000000	2.029561   
2518.000000	2.031874   
2517.000000	2.037167   
2516.000000	2.049994   
2515.000000	2.071523   
2514.000000	2.090430   
2513.000000	2.094483   
2512.000000	2.084016   
2511.000000	2.068734   
2510.000000	2.056884   
2509.000000	2.051019   
2508.000000	2.047872   
2507.000000	2.041554   
2506.000000	2.033209   
2505.000000	2.034425   
2504.000000	2.048373   
2503.000000	2.057671   
2502.000000	2.051496   
2501.000000	2.048921   
2500.000000	2.068352   
2499.000000	2.093744   
2498.000000	2.104330   
2497.000000	2.109575   
2496.000000	2.115511   
2495.000000	2.097344   
2494.000000	2.049851   
2493.000000	2.018618   
2492.000000	2.034687   
2491.000000	2.067112   
2490.000000	2.080774   
2489.000000	2.082872   
2488.000000	2.079868   
2487.000000	2.055883   
2486.000000	2.022862   
2485.000000	2.024102   
2484.000000	2.063918   
2483.000000	2.095794   
2482.000000	2.093338   
2481.000000	2.075839   
2480.000000	2.057909   
2479.000000	2.031779   
2478.000000	2.003526   
2477.000000	1.997733   
2476.000000	2.021455   
2475.000000	2.057409   
2474.000000	2.089214   
2473.000000	2.107644   
2472.000000	2.104759   
2471.000000	2.086734   
2470.000000	2.079439   
2469.000000	2.099657   
2468.000000	2.132391   
2467.000000	2.148842   
2466.000000	2.138328   
2465.000000	2.113676   
2464.000000	2.092361   
2463.000000	2.081537   
2462.000000	2.080988   
2461.000000	2.091288   
2460.000000	2.109432   
2459.000000	2.118825   
2458.000000	2.103853   
2457.000000	2.077245   
2456.000000	2.070546   
2455.000000	2.092599   
2454.000000	2.120184   
2453.000000	2.132058   
2452.000000	2.126622   
2451.000000	2.107214   
2450.000000	2.081108   
2449.000000	2.069163   
2448.000000	2.082967   
2447.000000	2.103161   
2446.000000	2.110171   
2445.000000	2.115869   
2444.000000	2.130675   
2443.000000	2.130889   
2442.000000	2.099633   
2441.000000	2.066087   
2440.000000	2.061676   
2439.000000	2.073836   
2438.000000	2.079582   
2437.000000	2.087593   
2436.000000	2.112269   
2435.000000	2.140021   
2434.000000	2.152609   
2433.000000	2.152895   
2432.000000	2.147769   
2431.000000	2.135729   
2430.000000	2.124238   
2429.000000	2.129673   
2428.000000	2.151942   
2427.000000	2.175569   
2426.000000	2.192997   
2425.000000	2.200150   
2424.000000	2.179622   
2423.000000	2.126193   
2422.000000	2.076649   
2421.000000	2.072858   
2420.000000	2.105188   
2419.000000	2.132511   
2418.000000	2.141904   
2417.000000	2.149605   
2416.000000	2.160596   
2415.000000	2.166485   
2414.000000	2.167415   
2413.000000	2.167892   
2412.000000	2.165842   
2411.000000	2.161574   
2410.000000	2.162694   
2409.000000	2.168416   
2408.000000	2.162718   
2407.000000	2.135825   
2406.000000	2.104282   
2405.000000	2.099227   
2404.000000	2.129983   
2403.000000	2.165555   
2402.000000	2.169585   
2401.000000	2.148938   
2400.000000	2.142429   
2399.000000	2.164387   
2398.000000	2.187848   
2397.000000	2.185583   
2396.000000	2.157187   
2395.000000	2.116489   
2394.000000	2.082443   
2393.000000	2.077794   
2392.000000	2.106809   
2391.000000	2.140283   
2390.000000	2.148580   
2389.000000	2.135467   
2388.000000	2.118778   
2387.000000	2.101850   
2386.000000	2.090167   
2385.000000	2.102947   
2384.000000	2.140450   
2383.000000	2.171301   
2382.000000	2.177500   
2381.000000	2.178168   
2380.000000	2.188062   
2379.000000	2.191042   
2378.000000	2.175855   
2377.000000	2.158737   
2376.000000	2.151608   
2375.000000	2.145361   
2374.000000	2.136039   
2373.000000	2.132892   
2372.000000	2.135062   
2371.000000	2.134466   
2370.000000	2.138710   
2369.000000	2.156472   
2368.000000	2.169871   
2367.000000	2.161264   
2366.000000	2.149868   
2365.000000	2.160215   
2364.000000	2.176403   
2363.000000	2.171039   
2362.000000	2.154564   
2361.000000	2.152919   
2360.000000	2.160644   
2359.000000	2.154517   
2358.000000	2.134442   
2357.000000	2.119755   
2356.000000	2.119517   
2355.000000	2.125906   
2354.000000	2.130079   
2353.000000	2.130770   
2352.000000	2.130484   
2351.000000	2.130007   
2350.000000	2.128911   
2349.000000	2.131795   
2348.000000	2.144646   
2347.000000	2.163004   
2346.000000	2.174925   
2345.000000	2.179074   
2344.000000	2.189540   
2343.000000	2.217602   
2342.000000	2.260994   
2341.000000	2.308440   
2340.000000	2.343273   
2339.000000	2.348613   
2338.000000	2.326869   
2337.000000	2.303743   
2336.000000	2.293276   
2335.000000	2.281475   
2334.000000	2.267050   
2333.000000	2.284646   
2332.000000	2.352142   
2331.000000	2.429127   
2330.000000	2.465248   
2329.000000	2.454447   
2328.000000	2.412056   
2327.000000	2.343678   
2326.000000	2.269196   
2325.000000	2.230691   
2324.000000	2.244710   
2323.000000	2.284741   
2322.000000	2.326273   
2321.000000	2.367401   
2320.000000	2.398729   
2319.000000	2.401399   
2318.000000	2.381849   
2317.000000	2.366352   
2316.000000	2.358841   
2315.000000	2.345180   
2314.000000	2.331686   
2313.000000	2.338337   
2312.000000	2.363514   
2311.000000	2.392005   
2310.000000	2.425312   
2309.000000	2.463889   
2308.000000	2.483654   
2307.000000	2.466392   
2306.000000	2.432847   
2305.000000	2.413153   
2304.000000	2.403950   
2303.000000	2.382707   
2302.000000	2.343392   
2301.000000	2.297830   
2300.000000	2.261328   
2299.000000	2.251267   
2298.000000	2.281069   
2297.000000	2.342200   
2296.000000	2.404928   
2295.000000	2.444267   
2294.000000	2.456283   
2293.000000	2.449321   
2292.000000	2.430057   
2291.000000	2.401781   
2290.000000	2.371311   
2289.000000	2.352738   
2288.000000	2.356910   
2287.000000	2.379131   
2286.000000	2.408409   
2285.000000	2.441930   
2284.000000	2.471661   
2283.000000	2.476406   
2282.000000	2.452731   
2281.000000	2.427959   
2280.000000	2.409195   
2279.000000	2.362155   
2278.000000	2.284288   
2277.000000	2.241420   
2276.000000	2.279996   
2275.000000	2.356719   
2274.000000	2.408218   
2273.000000	2.432703   
2272.000000	2.456998   
2271.000000	2.480673   
2270.000000	2.495145   
2269.000000	2.508831   
2268.000000	2.525019   
2267.000000	2.533817   
2266.000000	2.539229   
2265.000000	2.555179   
2264.000000	2.571892   
2263.000000	2.562165   
2262.000000	2.524614   
2261.000000	2.484035   
2260.000000	2.452445   
2259.000000	2.423548   
2258.000000	2.396821   
2257.000000	2.376580   
2256.000000	2.358388   
2255.000000	2.348780   
2254.000000	2.371263   
2253.000000	2.420449   
2252.000000	2.447605   
2251.000000	2.431726   
2250.000000	2.421522   
2249.000000	2.467823   
2248.000000	2.548670   
2247.000000	2.606058   
2246.000000	2.622675   
2245.000000	2.626514   
2244.000000	2.643632   
2243.000000	2.670788   
2242.000000	2.687692   
2241.000000	2.683186   
2240.000000	2.668476   
2239.000000	2.662229   
2238.000000	2.664256   
2237.000000	2.649354   
2236.000000	2.590250   
2235.000000	2.487826   
2234.000000	2.389574   
2233.000000	2.363824   
2232.000000	2.429127   
2231.000000	2.520728   
2230.000000	2.561402   
2229.000000	2.543902   
2228.000000	2.512121   
2227.000000	2.491784   
2226.000000	2.491354   
2225.000000	2.530980   
2224.000000	2.610135   
2223.000000	2.683782   
2222.000000	2.719736   
2221.000000	2.740597   
2220.000000	2.766275   
2219.000000	2.775406   
2218.000000	2.757811   
2217.000000	2.736139   
2216.000000	2.701544   
2215.000000	2.618074   
2214.000000	2.513432   
2213.000000	2.474761   
2212.000000	2.530980   
2211.000000	2.621030   
2210.000000	2.691960   
2209.000000	2.748942   
2208.000000	2.800035   
2207.000000	2.828931   
2206.000000	2.834343   
2205.000000	2.840352   
2204.000000	2.858066   
2203.000000	2.872467   
2202.000000	2.868556   
2201.000000	2.845740   
2200.000000	2.815365   
2199.000000	2.796244   
2198.000000	2.803421   
2197.000000	2.827548   
2196.000000	2.839064   
2195.000000	2.816820   
2194.000000	2.763795   
2193.000000	2.695441   
2192.000000	2.623462   
2191.000000	2.560997   
2190.000000	2.532815   
2189.000000	2.567148   
2188.000000	2.661275   
2187.000000	2.765774   
2186.000000	2.828431   
2185.000000	2.851080   
2184.000000	2.871727   
2183.000000	2.896046   
2182.000000	2.890920   
2181.000000	2.845788   
2180.000000	2.791166   
2179.000000	2.749371   
2178.000000	2.713871   
2177.000000	2.677392   
2176.000000	2.644467   
2175.000000	2.622246   
2174.000000	2.623867   
2173.000000	2.666687   
2172.000000	2.733993   
2171.000000	2.768707   
2170.000000	2.742433   
2169.000000	2.698135   
2168.000000	2.691602   
2167.000000	2.714633   
2166.000000	2.712202   
2165.000000	2.643179   
2164.000000	2.503228   
2163.000000	2.340006   
2162.000000	2.257633   
2161.000000	2.339005   
2160.000000	2.539443   
2159.000000	2.722358   
2158.000000	2.808880   
2157.000000	2.823328   
2156.000000	2.793979   
2155.000000	2.701997   
2154.000000	2.549099   
2153.000000	2.403807   
2152.000000	2.347922   
2151.000000	2.407956   
2150.000000	2.544689   
2149.000000	2.686309   
2148.000000	2.775692   
2147.000000	2.808642   
2146.000000	2.822804   
2145.000000	2.839660   
2144.000000	2.841114   
2143.000000	2.810621   
2142.000000	2.769160   
2141.000000	2.754878   
2140.000000	2.780961   
2139.000000	2.830862   
2138.000000	2.883720   
2137.000000	2.927446   
2136.000000	2.949690   
2135.000000	2.930212   
2134.000000	2.865219   
2133.000000	2.793359   
2132.000000	2.767872   
2131.000000	2.798032   
2130.000000	2.847361   
2129.000000	2.890396   
2128.000000	2.927255   
2127.000000	2.946901   
2126.000000	2.930617   
2125.000000	2.893328   
2124.000000	2.867913   
2123.000000	2.853941   
2122.000000	2.834439   
2121.000000	2.822208   
2120.000000	2.838540   
2119.000000	2.869033   
2118.000000	2.891612   
2117.000000	2.917075   
2116.000000	2.954936   
2115.000000	2.977657   
2114.000000	2.965736   
2113.000000	2.946853   
2112.000000	2.948260   
2111.000000	2.951598   
2110.000000	2.929472   
2109.000000	2.887511   
2108.000000	2.845001   
2107.000000	2.813076   
2106.000000	2.804851   
2105.000000	2.830266   
2104.000000	2.864217   
2103.000000	2.857661   
2102.000000	2.796411   
2101.000000	2.726578   
2100.000000	2.710604   
2099.000000	2.764821   
2098.000000	2.844357   
2097.000000	2.887606   
2096.000000	2.878236   
2095.000000	2.859854   
2094.000000	2.889227   
2093.000000	2.974081   
2092.000000	3.059029   
2091.000000	3.070497   
2090.000000	2.985048   
2089.000000	2.856397   
2088.000000	2.768445   
2087.000000	2.755069   
2086.000000	2.774977   
2085.000000	2.772736   
2084.000000	2.746486   
2083.000000	2.742910   
2082.000000	2.795791   
2081.000000	2.887320   
2080.000000	2.966165   
2079.000000	3.000020   
2078.000000	3.001284   
2077.000000	3.002810   
2076.000000	3.018617   
2075.000000	3.031229   
2074.000000	3.013610   
2073.000000	2.958726   
2072.000000	2.890491   
2071.000000	2.841782   
2070.000000	2.818441   
2069.000000	2.790498   
2068.000000	2.735710   
2067.000000	2.680325   
2066.000000	2.681660   
2065.000000	2.769207   
2064.000000	2.912497   
2063.000000	3.046512   
2062.000000	3.125882   
2061.000000	3.149318   
2060.000000	3.132534   
2059.000000	3.080058   
2058.000000	2.991533   
2057.000000	2.878642   
2056.000000	2.754354   
2055.000000	2.633166   
2054.000000	2.550125   
2053.000000	2.540040   
2052.000000	2.585506   
2051.000000	2.631425   
2050.000000	2.660226   
2049.000000	2.698707   
2048.000000	2.748394   
2047.000000	2.780485   
2046.000000	2.800774   
2045.000000	2.847337   
2044.000000	2.918219   
2043.000000	2.962732   
2042.000000	2.949523   
2041.000000	2.891778   
2040.000000	2.820181   
2039.000000	2.776741   
2038.000000	2.807140   
2037.000000	2.901959   
2036.000000	2.979135   
2035.000000	2.974534   
2034.000000	2.917218   
2033.000000	2.883887   
2032.000000	2.905607   
2031.000000	2.953457   
2030.000000	2.987980   
2029.000000	2.990698   
2028.000000	2.962136   
2027.000000	2.917289   
2026.000000	2.882552   
2025.000000	2.885866   
2024.000000	2.931857   
2023.000000	2.983331   
2022.000000	2.986526   
2021.000000	2.924823   
2020.000000	2.839612   
2019.000000	2.790498   
2018.000000	2.805566   
2017.000000	2.868270   
2016.000000	2.929472   
2015.000000	2.940750   
2014.000000	2.903914   
2013.000000	2.876806   
2012.000000	2.904963   
2011.000000	2.967667   
2010.000000	3.019571   
2009.000000	3.053021   
2008.000000	3.076314   
2007.000000	3.074669   
2006.000000	3.041458   
2005.000000	3.011322   
2004.000000	3.015828   
2003.000000	3.041768   
2002.000000	3.064966   
2001.000000	3.087043   
2000.000000	3.108334   
1999.000000	3.111100   
1998.000000	3.096055   
1997.000000	3.089547   
1996.000000	3.099465   
1995.000000	3.107810   
1994.000000	3.111171   
1993.000000	3.122591   
1992.000000	3.134441   
1991.000000	3.130221   
1990.000000	3.128528   
1989.000000	3.159642   
1988.000000	3.209090   
1987.000000	3.236150   
1986.000000	3.236246   
1985.000000	3.234744   
1984.000000	3.235864   
1983.000000	3.226304   
1982.000000	3.210568   
1981.000000	3.200626   
1980.000000	3.191041   
1979.000000	3.175735   
1978.000000	3.168368   
1977.000000	3.182768   
1976.000000	3.211522   
1975.000000	3.241729   
1974.000000	3.271770   
1973.000000	3.302001   
1972.000000	3.323006   
1971.000000	3.323793   
1970.000000	3.307700   
1969.000000	3.293609   
1968.000000	3.295779   
1967.000000	3.306841   
1966.000000	3.314042   
1965.000000	3.322768   
1964.000000	3.338384   
1963.000000	3.337025   
1962.000000	3.295898   
1961.000000	3.241705   
1960.000000	3.220844   
1959.000000	3.234815   
1958.000000	3.255176   
1957.000000	3.278684   
1956.000000	3.314805   
1955.000000	3.345060   
1954.000000	3.349351   
1953.000000	3.344440   
1952.000000	3.349041   
1951.000000	3.349065   
1950.000000	3.335547   
1949.000000	3.332138   
1948.000000	3.348159   
1947.000000	3.355956   
1946.000000	3.345751   
1945.000000	3.344988   
1944.000000	3.359222   
1943.000000	3.359031   
1942.000000	3.342986   
1941.000000	3.346729   
1940.000000	3.375101   
1939.000000	3.391075   
1938.000000	3.381609   
1937.000000	3.371739   
1936.000000	3.370428   
1935.000000	3.360390   
1934.000000	3.341436   
1933.000000	3.334450   
1932.000000	3.345417   
1931.000000	3.361892   
1930.000000	3.376603   
1929.000000	3.384947   
1928.000000	3.375244   
1927.000000	3.347682   
1926.000000	3.328847   
1925.000000	3.345417   
1924.000000	3.391051   
1923.000000	3.431963   
1922.000000	3.440809   
1921.000000	3.420615   
1920.000000	3.395891   
1919.000000	3.385710   
1918.000000	3.390336   
1917.000000	3.402805   
1916.000000	3.419589   
1915.000000	3.435587   
1914.000000	3.445744   
1913.000000	3.455662   
1912.000000	3.469681   
1911.000000	3.471183   
1910.000000	3.444433   
1909.000000	3.411006   
1908.000000	3.404903   
1907.000000	3.421807   
1906.000000	3.439235   
1905.000000	3.464484   
1904.000000	3.506588   
1903.000000	3.533506   
1902.000000	3.521561   
1901.000000	3.508281   
1900.000000	3.529286   
1899.000000	3.551006   
1898.000000	3.530621   
1897.000000	3.488564   
1896.000000	3.462505   
1895.000000	3.446459   
1894.000000	3.429150   
1893.000000	3.431415   
1892.000000	3.459143   
1891.000000	3.477978   
1890.000000	3.469324   
1889.000000	3.461241   
1888.000000	3.478622   
1887.000000	3.509163   
1886.000000	3.533530   
1885.000000	3.547573   
1884.000000	3.548336   
1883.000000	3.533363   
1882.000000	3.516650   
1881.000000	3.517603   
1880.000000	3.535437   
1879.000000	3.554391   
1878.000000	3.569102   
1877.000000	3.584766   
1876.000000	3.598403   
1875.000000	3.596949   
1874.000000	3.575372   
1873.000000	3.549265   
1872.000000	3.541612   
1871.000000	3.556776   
1870.000000	3.576779   
1869.000000	3.587293   
1868.000000	3.593349   
1867.000000	3.601312   
1866.000000	3.604507   
1865.000000	3.599667   
1864.000000	3.599023   
1863.000000	3.611302   
1862.000000	3.627395   
1861.000000	3.635525   
1860.000000	3.632783   
1859.000000	3.617644   
1858.000000	3.591632   
1857.000000	3.570938   
1856.000000	3.571629   
1855.000000	3.585243   
1854.000000	3.594446   
1853.000000	3.603267   
1852.000000	3.620147   
1851.000000	3.627586   
1850.000000	3.609228   
1849.000000	3.586626   
1848.000000	3.585100   
1847.000000	3.589725   
1846.000000	3.580617   
1845.000000	3.577661   
1844.000000	3.602457   
1843.000000	3.632712   
1842.000000	3.640913   
1841.000000	3.637433   
1840.000000	3.635764   
1839.000000	3.624725   
1838.000000	3.607988   
1837.000000	3.613972   
1836.000000	3.640413   
1835.000000	3.649044   
1834.000000	3.632783   
1833.000000	3.626799   
1832.000000	3.640913   
1831.000000	3.642296   
1830.000000	3.616499   
1829.000000	3.593087   
1828.000000	3.597235   
1827.000000	3.614783   
1826.000000	3.617548   
1825.000000	3.601098   
1824.000000	3.586816   
1823.000000	3.591251   
1822.000000	3.604531   
1821.000000	3.606486   
1820.000000	3.595185   
1819.000000	3.583931   
1818.000000	3.579521   
1817.000000	3.582501   
1816.000000	3.593778   
1815.000000	3.601861   
1814.000000	3.585577   
1813.000000	3.548860   
1812.000000	3.525853   
1811.000000	3.534603   
1810.000000	3.556132   
1809.000000	3.571176   
1808.000000	3.582096   
1807.000000	3.587245   
1806.000000	3.573274   
1805.000000	3.544402   
1804.000000	3.525781   
1803.000000	3.527736   
1802.000000	3.533124   
1801.000000	3.526878   
1800.000000	3.515887   
1799.000000	3.514146   
1798.000000	3.527593   
1797.000000	3.553247   
1796.000000	3.578686   
1795.000000	3.588318   
1794.000000	3.583836   
1793.000000	3.585386   
1792.000000	3.598666   
1791.000000	3.601145   
1790.000000	3.582715   
1789.000000	3.570890   
1788.000000	3.588509   
1787.000000	3.620529   
1786.000000	3.648209   
1785.000000	3.677368   
1784.000000	3.706383   
1783.000000	3.711605   
1782.000000	3.689742   
1781.000000	3.669285   
1780.000000	3.661036   
1779.000000	3.644061   
1778.000000	3.613328   
1777.000000	3.595948   
1776.000000	3.608322   
1775.000000	3.634667   
1774.000000	3.654932   
1773.000000	3.666186   
1772.000000	3.671622   
1771.000000	3.670334   
1770.000000	3.662943   
1769.000000	3.657555   
1768.000000	3.663754   
1767.000000	3.683638   
1766.000000	3.708004   
1765.000000	3.725171   
1764.000000	3.733325   
1763.000000	3.739643   
1762.000000	3.749489   
1761.000000	3.759574   
1760.000000	3.762483   
1759.000000	3.753447   
1758.000000	3.738355   
1757.000000	3.737378   
1756.000000	3.765439   
1755.000000	3.806710   
1754.000000	3.825616   
1753.000000	3.809189   
1752.000000	3.778314   
1751.000000	3.755855   
1750.000000	3.752207   
1749.000000	3.778338   
1748.000000	3.833699   
1747.000000	3.882622   
1746.000000	3.884291   
1745.000000	3.847146   
1744.000000	3.813099   
1743.000000	3.799414   
1742.000000	3.798675   
1741.000000	3.814053   
1740.000000	3.844857   
1739.000000	3.861093   
1738.000000	3.839588   
1737.000000	3.803157   
1736.000000	3.784966   
1735.000000	3.781056   
1734.000000	3.771972   
1733.000000	3.765082   
1732.000000	3.782343   
1731.000000	3.823208   
1730.000000	3.863644   
1729.000000	3.881096   
1728.000000	3.869700   
1727.000000	3.843951   
1726.000000	3.831481   
1725.000000	3.848123   
1724.000000	3.877830   
1723.000000	3.891015   
1722.000000	3.879690   
1721.000000	3.857517   
1720.000000	3.834080   
1719.000000	3.810787   
1718.000000	3.797245   
1717.000000	3.805732   
1716.000000	3.829431   
1715.000000	3.845405   
1714.000000	3.841328   
1713.000000	3.828978   
1712.000000	3.826522   
1711.000000	3.834223   
1710.000000	3.837442   
1709.000000	3.833222   
1708.000000	3.838348   
1707.000000	3.860306   
1706.000000	3.880214   
1705.000000	3.880357   
1704.000000	3.871273   
1703.000000	3.872919   
1702.000000	3.888249   
1701.000000	3.908586   
1700.000000	3.931403   
1699.000000	3.958106   
1698.000000	3.986072   
1697.000000	4.011392   
1696.000000	4.033327   
1695.000000	4.053425   
1694.000000	4.076051   
1693.000000	4.107880   
1692.000000	4.147887   
1691.000000	4.183197   
1690.000000	4.204058   
1689.000000	4.220342   
1688.000000	4.247164   
1687.000000	4.285693   
1686.000000	4.332160   
1685.000000	4.395031   
1684.000000	4.476118   
1683.000000	4.559731   
1682.000000	4.641342   
1681.000000	4.744863   
1680.000000	4.880976   
1679.000000	5.022835   
1678.000000	5.146169   
1677.000000	5.266857   
1676.000000	5.408024   
1675.000000	5.564975   
1674.000000	5.722784   
1673.000000	5.884194   
1672.000000	6.056022   
1671.000000	6.231760   
1670.000000	6.399822   
1669.000000	6.552147   
1668.000000	6.681156   
1667.000000	6.790542   
1666.000000	6.903481   
1665.000000	7.035303   
1664.000000	7.167792   
1663.000000	7.283139   
1662.000000	7.401967   
1661.000000	7.551932   
1660.000000	7.710504   
1659.000000	7.827734   
1658.000000	7.885146   
1657.000000	7.900166   
1656.000000	7.881355   
1655.000000	7.821559   
1654.000000	7.722926   
1653.000000	7.610678   
1652.000000	7.511544   
1651.000000	7.430529   
1650.000000	7.349467   
1649.000000	7.254123   
1648.000000	7.148790   
1647.000000	7.042741   
1646.000000	6.941914   
1645.000000	6.863737   
1644.000000	6.824302   
1643.000000	6.806564   
1642.000000	6.780052   
1641.000000	6.754541   
1640.000000	6.762981   
1639.000000	6.799054   
1638.000000	6.827330   
1637.000000	6.849884   
1636.000000	6.897664   
1635.000000	6.965899   
1634.000000	7.020401   
1633.000000	7.057476   
1632.000000	7.102870   
1631.000000	7.163977   
1630.000000	7.234573   
1629.000000	7.321953   
1628.000000	7.431793   
1627.000000	7.543206   
1626.000000	7.639884   
1625.000000	7.730054   
1624.000000	7.819056   
1623.000000	7.885360   
1622.000000	7.913041   
1621.000000	7.906031   
1620.000000	7.856607   
1619.000000	7.735228   
1618.000000	7.534313   
1617.000000	7.286500   
1616.000000	7.027387   
1615.000000	6.769251   
1614.000000	6.518435   
1613.000000	6.286334   
1612.000000	6.076478   
1611.000000	5.885767   
1610.000000	5.718469   
1609.000000	5.581498   
1608.000000	5.468177   
1607.000000	5.363917   
1606.000000	5.266332   
1605.000000	5.187940   
1604.000000	5.137991   
1603.000000	5.104446   
1602.000000	5.066084   
1601.000000	5.020236   
1600.000000	4.989290   
1599.000000	4.978537   
1598.000000	4.961729   
1597.000000	4.917430   
1596.000000	4.862332   
1595.000000	4.818844   
1594.000000	4.790925   
1593.000000	4.784035   
1592.000000	4.809641   
1591.000000	4.845547   
1590.000000	4.845380   
1589.000000	4.802465   
1588.000000	4.757332   
1587.000000	4.733538   
1586.000000	4.720497   
1585.000000	4.715633   
1584.000000	4.726243   
1583.000000	4.731512   
1582.000000	4.701685   
1581.000000	4.651308   
1580.000000	4.621124   
1579.000000	4.615783   
1578.000000	4.604792   
1577.000000	4.575204   
1576.000000	4.542350   
1575.000000	4.520535   
1574.000000	4.515099   
1573.000000	4.527258   
1572.000000	4.544758   
1571.000000	4.545712   
1570.000000	4.528832   
1569.000000	4.519128   
1568.000000	4.530119   
1567.000000	4.545307   
1566.000000	4.549026   
1565.000000	4.549288   
1564.000000	4.557132   
1563.000000	4.566431   
1562.000000	4.566192   
1561.000000	4.556798   
1560.000000	4.546427   
1559.000000	4.541563   
1558.000000	4.545855   
1557.000000	4.559183   
1556.000000	4.576134   
1555.000000	4.587340   
1554.000000	4.585433   
1553.000000	4.573297   
1552.000000	4.563665   
1551.000000	4.560995   
1550.000000	4.553318   
1549.000000	4.536175   
1548.000000	4.528450   
1547.000000	4.542064   
1546.000000	4.561114   
1545.000000	4.575109   
1544.000000	4.598426   
1543.000000	4.628300   
1542.000000	4.632377   
1541.000000	4.609823   
1540.000000	4.607915   
1539.000000	4.644966   
1538.000000	4.678130   
1537.000000	4.677581   
1536.000000	4.669141   
1535.000000	4.679417   
1534.000000	4.697632   
1533.000000	4.711055   
1532.000000	4.727888   
1531.000000	4.750204   
1530.000000	4.764986   
1529.000000	4.769349   
1528.000000	4.776906   
1527.000000	4.795289   
1526.000000	4.814743   
1525.000000	4.821991   
1524.000000	4.814171   
1523.000000	4.799747   
1522.000000	4.789710   
1521.000000	4.788947   
1520.000000	4.795765   
1519.000000	4.805803   
1518.000000	4.814410   
1517.000000	4.816055   
1516.000000	4.807472   
1515.000000	4.795122   
1514.000000	4.798150   
1513.000000	4.831743   
1512.000000	4.886507   
1511.000000	4.933977   
1510.000000	4.954457   
1509.000000	4.950857   
1508.000000	4.935097   
1507.000000	4.912257   
1506.000000	4.883885   
1505.000000	4.860591   
1504.000000	4.858469   
1503.000000	4.876971   
1502.000000	4.890871   
1501.000000	4.882669   
1500.000000	4.871559   
1499.000000	4.884433   
1498.000000	4.912614   
1497.000000	4.929757   
1496.000000	4.937529   
1495.000000	4.956746   
1494.000000	4.985904   
1493.000000	5.004262   
1492.000000	5.005049   
1491.000000	4.997062   
1490.000000	4.990148   
1489.000000	4.995179   
1488.000000	5.024409   
1487.000000	5.071091   
1486.000000	5.111598   
1485.000000	5.135655   
1484.000000	5.155658   
1483.000000	5.179095   
1482.000000	5.199027   
1481.000000	5.216288   
1480.000000	5.246829   
1479.000000	5.296850   
1478.000000	5.357122   
1477.000000	5.425238   
1476.000000	5.510568   
1475.000000	5.613732   
1474.000000	5.723357   
1473.000000	5.833673   
1472.000000	5.943155   
1471.000000	6.048631   
1470.000000	6.161642   
1469.000000	6.313776   
1468.000000	6.517505   
1467.000000	6.739473   
1466.000000	6.933522   
1465.000000	7.088851   
1464.000000	7.225561   
1463.000000	7.353520   
1462.000000	7.457494   
1461.000000	7.526588   
1460.000000	7.588958   
1459.000000	7.687926   
1458.000000	7.827568   
1457.000000	7.967376   
1456.000000	8.086252   
1455.000000	8.204412   
1454.000000	8.334136   
1453.000000	8.447217   
1452.000000	8.512783   
1451.000000	8.527994   
1450.000000	8.501529   
1449.000000	8.440327   
1448.000000	8.356857   
1447.000000	8.261084   
1446.000000	8.145570   
1445.000000	8.002734   
1444.000000	7.852172   
1443.000000	7.730484   
1442.000000	7.657504   
1441.000000	7.627630   
1440.000000	7.628035   
1439.000000	7.654786   
1438.000000	7.706618   
1437.000000	7.771968   
1436.000000	7.832741   
1435.000000	7.879328   
1434.000000	7.923555   
1433.000000	7.982182   
1432.000000	8.060574   
1431.000000	8.145117   
1430.000000	8.225941   
1429.000000	8.309841   
1428.000000	8.410120   
1427.000000	8.520936   
1426.000000	8.624839   
1425.000000	8.721995   
1424.000000	8.838891   
1423.000000	9.001755   
1422.000000	9.217834   
1421.000000	9.479904   
1420.000000	9.772968   
1419.000000	10.069775  
1418.000000	10.331821  
1417.000000	10.525655  
1416.000000	10.635805  
1415.000000	10.662698  
1414.000000	10.609889  
1413.000000	10.478329  
1412.000000	10.272836  
1411.000000	10.015869  
1410.000000	9.749722   
1409.000000	9.513807   
1408.000000	9.319400   
1407.000000	9.157156   
1406.000000	9.032726   
1405.000000	8.972573   
1404.000000	8.988451   
1403.000000	9.052300   
1402.000000	9.122276   
1401.000000	9.180021   
1400.000000	9.232354   
1399.000000	9.286189   
1398.000000	9.334421   
1397.000000	9.372138   
1396.000000	9.414911   
1395.000000	9.489989   
1394.000000	9.608817   
1393.000000	9.763312   
1392.000000	9.949541   
1391.000000	10.181927  
1390.000000	10.479831  
1389.000000	10.853981  
1388.000000	11.301732  
1387.000000	11.806416  
1386.000000	12.339329  
1385.000000	12.875247  
1384.000000	13.394474  
1383.000000	13.872146  
1382.000000	14.272999  
1381.000000	14.574790  
1380.000000	14.779758  
1379.000000	14.903569  
1378.000000	14.951682  
1377.000000	14.931726  
1376.000000	14.861845  
1375.000000	14.773106  
1374.000000	14.691948  
1373.000000	14.637541  
1372.000000	14.604711  
1371.000000	14.561367  
1370.000000	14.473819  
1369.000000	14.338946  
1368.000000	14.162468  
1367.000000	13.919878  
1366.000000	13.573908  
1365.000000	13.128232  
1364.000000	12.629675  
1363.000000	12.119412  
1362.000000	11.613035  
1361.000000	11.121296  
1360.000000	10.658073  
1359.000000	10.231447  
1358.000000	9.843659   
1357.000000	9.500885   
1356.000000	9.206008   
1355.000000	8.956456   
1354.000000	8.749580   
1353.000000	8.590865   
1352.000000	8.475923   
1351.000000	8.390665   
1350.000000	8.318924   
1349.000000	8.263063   
1348.000000	8.234667   
1347.000000	8.249855   
1346.000000	8.316040   
1345.000000	8.430862   
1344.000000	8.576798   
1343.000000	8.738231   
1342.000000	8.913636   
1341.000000	9.118080   
1340.000000	9.365081   
1339.000000	9.648537   
1338.000000	9.943270   
1337.000000	10.234212  
1336.000000	10.532855  
1335.000000	10.856652  
1334.000000	11.203527  
1333.000000	11.572861  
1332.000000	11.974239  
1331.000000	12.386274  
1330.000000	12.727880  
1329.000000	12.923860  
1328.000000	12.968897  
1327.000000	12.908816  
1326.000000	12.775611  
1325.000000	12.586784  
1324.000000	12.362575  
1323.000000	12.121844  
1322.000000	11.869215  
1321.000000	11.618494  
1320.000000	11.386919  
1319.000000	11.172914  
1318.000000	10.959792  
1317.000000	10.752153  
1316.000000	10.563302  
1315.000000	10.376119  
1314.000000	10.156011  
1313.000000	9.905934   
1312.000000	9.664964   
1311.000000	9.452223   
1310.000000	9.243154   
1309.000000	9.010243   
1308.000000	8.759450   
1307.000000	8.523797   
1306.000000	8.330345   
1305.000000	8.181786   
1304.000000	8.056402   
1303.000000	7.931470   
1302.000000	7.798218   
1301.000000	7.660865   
1300.000000	7.519626   
1299.000000	7.372283   
1298.000000	7.221889   
1297.000000	7.083511   
1296.000000	6.971168   
1295.000000	6.888222   
1294.000000	6.825590   
1293.000000	6.777262   
1292.000000	6.746029   
1291.000000	6.730484   
1290.000000	6.710457   
1289.000000	6.665730   
1288.000000	6.605887   
1287.000000	6.560587   
1286.000000	6.541514   
1285.000000	6.534838   
1284.000000	6.532955   
1283.000000	6.536769   
1282.000000	6.538176   
1281.000000	6.529855   
1280.000000	6.529641   
1279.000000	6.561160   
1278.000000	6.626987   
1277.000000	6.730771   
1276.000000	6.894254   
1275.000000	7.121562   
1274.000000	7.379293   
1273.000000	7.652711   
1272.000000	7.972192   
1271.000000	8.350586   
1270.000000	8.731746   
1269.000000	9.042763   
1268.000000	9.253549   
1267.000000	9.363770   
1266.000000	9.373950   
1265.000000	9.300231   
1264.000000	9.179782   
1263.000000	9.041500   
1262.000000	8.895921   
1261.000000	8.756303   
1260.000000	8.638048   
1259.000000	8.535265   
1258.000000	8.429121   
1257.000000	8.313035   
1256.000000	8.187747   
1255.000000	8.040022   
1254.000000	7.862949   
1253.000000	7.677173   
1252.000000	7.510542   
1251.000000	7.359147   
1250.000000	7.197165   
1249.000000	7.019114   
1248.000000	6.855416   
1247.000000	6.738352   
1246.000000	6.659102   
1245.000000	6.580114   
1244.000000	6.491541   
1243.000000	6.426405   
1242.000000	6.401205   
1241.000000	6.384706   
1240.000000	6.348347   
1239.000000	6.303238   
1238.000000	6.261849   
1237.000000	6.215023   
1236.000000	6.162142   
1235.000000	6.115436   
1234.000000	6.064438   
1233.000000	5.993676   
1232.000000	5.930638   
1231.000000	5.909466   
1230.000000	5.899691   
1229.000000	5.843281   
1228.000000	5.750155   
1227.000000	5.682134   
1226.000000	5.664134   
1225.000000	5.672621   
1224.000000	5.690813   
1223.000000	5.705070   
1222.000000	5.685329   
1221.000000	5.617594   
1220.000000	5.540895   
1219.000000	5.502653   
1218.000000	5.506277   
1217.000000	5.523872   
1216.000000	5.542516   
1215.000000	5.575489   
1214.000000	5.639290   
1213.000000	5.737805   
1212.000000	5.864644   
1211.000000	6.017875   
1210.000000	6.197810   
1209.000000	6.393504   
1208.000000	6.583642   
1207.000000	6.753683   
1206.000000	6.890773   
1205.000000	6.967949   
1204.000000	6.956601   
1203.000000	6.858658   
1202.000000	6.703472   
1201.000000	6.516122   
1200.000000	6.309223   
1199.000000	6.099581   
1198.000000	5.910468   
1197.000000	5.752396   
1196.000000	5.618143   
1195.000000	5.495524   
1194.000000	5.383968   
1193.000000	5.290269   
1192.000000	5.220580   
1191.000000	5.171036   
1190.000000	5.133271   
1189.000000	5.109810   
1188.000000	5.122017   
1187.000000	5.182409   
1186.000000	5.259370   
1185.000000	5.302166   
1184.000000	5.301642   
1183.000000	5.297160   
1182.000000	5.313038   
1181.000000	5.335402   
1180.000000	5.354785   
1179.000000	5.387187   
1178.000000	5.440711   
1177.000000	5.499696   
1176.000000	5.552458   
1175.000000	5.598187   
1174.000000	5.635929   
1173.000000	5.672192   
1172.000000	5.735921   
1171.000000	5.839991   
1170.000000	5.958557   
1169.000000	6.059479   
1168.000000	6.154441   
1167.000000	6.270766   
1166.000000	6.417155   
1165.000000	6.592226   
1164.000000	6.814622   
1163.000000	7.099461   
1162.000000	7.433724   
1161.000000	7.795882   
1160.000000	8.181571   
1159.000000	8.598184   
1158.000000	9.049224   
1157.000000	9.540820   
1156.000000	10.066127  
1155.000000	10.586810  
1154.000000	11.053204  
1153.000000	11.450266  
1152.000000	11.791706  
1151.000000	12.075138  
1150.000000	12.271118  
1149.000000	12.357330  
1148.000000	12.335991  
1147.000000	12.213706  
1146.000000	11.991310  
1145.000000	11.680221  
1144.000000	11.328220  
1143.000000	11.004900  
1142.000000	10.762810  
1141.000000	10.604190  
1140.000000	10.510754  
1139.000000	10.470962  
1138.000000	10.477137  
1137.000000	10.505414  
1136.000000	10.536336  
1135.000000	10.569429  
1134.000000	10.597491  
1133.000000	10.606217  
1132.000000	10.607004  
1131.000000	10.639405  
1130.000000	10.709691  
1129.000000	10.787677  
1128.000000	10.862255  
1127.000000	10.963630  
1126.000000	11.111354  
1125.000000	11.305665  
1124.000000	11.565160  
1123.000000	11.922168  
1122.000000	12.368583  
1121.000000	12.861013  
1120.000000	13.372707  
1119.000000	13.897085  
1118.000000	14.410305  
1117.000000	14.886307  
1116.000000	15.319275  
1115.000000	15.697026  
1114.000000	15.970373  
1113.000000	16.112065  
1112.000000	16.155910  
1111.000000	16.159486  
1110.000000	16.137838  
1109.000000	16.095185  
1108.000000	16.052293  
1107.000000	16.028022  
1106.000000	15.992546  
1105.000000	15.897393  
1104.000000	15.704989  
1103.000000	15.402317  
1102.000000	14.993786  
1101.000000	14.511561  
1100.000000	13.991951  
1099.000000	13.449168  
1098.000000	12.888193  
1097.000000	12.340164  
1096.000000	11.846446  
1095.000000	11.414670  
1094.000000	11.018681  
1093.000000	10.640597  
1092.000000	10.282945  
1091.000000	9.946846   
1090.000000	9.622168   
1089.000000	9.308075   
1088.000000	9.025931   
1087.000000	8.807492   
1086.000000	8.654093   
1085.000000	8.539915   
1084.000000	8.447527   
1083.000000	8.393549   
1082.000000	8.373141   
1081.000000	8.354401   
1080.000000	8.331632   
1079.000000	8.347249   
1078.000000	8.401584   
1077.000000	8.439755   
1076.000000	8.442473   
1075.000000	8.461332   
1074.000000	8.521318   
1073.000000	8.590459   
1072.000000	8.658623   
1071.000000	8.759093   
1070.000000	8.893632   
1069.000000	9.029722   
1068.000000	9.170627   
1067.000000	9.344077   
1066.000000	9.530782   
1065.000000	9.691047   
1064.000000	9.838676   
1063.000000	10.012292  
1062.000000	10.194611  
1061.000000	10.333085  
1060.000000	10.410261  
1059.000000	10.437917  
1058.000000	10.408782  
1057.000000	10.306215  
1056.000000	10.141420  
1055.000000	9.949016   
1054.000000	9.754014   
1053.000000	9.567999   
1052.000000	9.396362   
1051.000000	9.242343   
1050.000000	9.107184   
1049.000000	8.998465   
1048.000000	8.920097   
1047.000000	8.863735   
1046.000000	8.820247   
1045.000000	8.796906   
1044.000000	8.798313   
1043.000000	8.798289   
1042.000000	8.754897   
1041.000000	8.659529   
1040.000000	8.550834   
1039.000000	8.475637   
1038.000000	8.440184   
1037.000000	8.411335   
1036.000000	8.364605   
1035.000000	8.313322   
1034.000000	8.276247   
1033.000000	8.244323   
1032.000000	8.208084   
1031.000000	8.185887   
1030.000000	8.183908   
1029.000000	8.166098   
1028.000000	8.108043   
1027.000000	8.036208   
1026.000000	7.974767   
1025.000000	7.906317   
1024.000000	7.821154   
1023.000000	7.743644   
1022.000000	7.677340   
1021.000000	7.594752   
1020.000000	7.502341   
1019.000000	7.439517   
1018.000000	7.398176   
1017.000000	7.326459   
1016.000000	7.220268   
1015.000000	7.129383   
1014.000000	7.071805   
1013.000000	7.025289   
1012.000000	6.992173   
1011.000000	6.984400   
1010.000000	6.967568   
1009.000000	6.908726   
1008.000000	6.845593   
1007.000000	6.823754   
1006.000000	6.812787   
1005.000000	6.763005   
1004.000000	6.690907   
1003.000000	6.629276   
1002.000000	6.555962   
1001.000000	6.439828   
1000.000000	6.305408   
999.000000	 6.192040   
998.000000	 6.096172   
997.000000	 5.994796   
996.000000	 5.892300   
995.000000	 5.812168   
994.000000	 5.764555   
993.000000	 5.737686   
992.000000	 5.714511   
991.000000	 5.688881   
990.000000	 5.659556   
989.000000	 5.616426   
988.000000	 5.555725   
987.000000	 5.501222   
986.000000	 5.476689   
985.000000	 5.466914   
984.000000	 5.446314   
983.000000	 5.431818   
982.000000	 5.455470   
981.000000	 5.506658   
980.000000	 5.554103   
979.000000	 5.603194   
978.000000	 5.671310   
977.000000	 5.744314   
976.000000	 5.798840   
975.000000	 5.844020   
974.000000	 5.875229   
973.000000	 5.867576   
972.000000	 5.826926   
971.000000	 5.813789   
970.000000	 5.835580   
969.000000	 5.840158   
968.000000	 5.819797   
967.000000	 5.839014   
966.000000	 5.917334   
965.000000	 6.016063   
964.000000	 6.161832   
963.000000	 6.453156   
962.000000	 6.929469   
961.000000	 7.560396   
960.000000	 8.357191   
959.000000	 9.353470   
958.000000	 10.465741  
957.000000	 11.491298  
956.000000	 12.246656  
955.000000	 12.631011  
954.000000	 12.602353  
953.000000	 12.192678  
952.000000	 11.535644  
951.000000	 10.801839  
950.000000	 10.101437  
949.000000	 9.472274   
948.000000	 8.919692   
947.000000	 8.449172   
946.000000	 8.052754   
945.000000	 7.713007   
944.000000	 7.399535   
943.000000	 7.095074   
942.000000	 6.799316   
941.000000	 6.532692   
940.000000	 6.308245   
939.000000	 6.126022   
938.000000	 5.967974   
937.000000	 5.813002   
936.000000	 5.658555   
935.000000	 5.532717   
934.000000	 5.460238   
933.000000	 5.425190   
932.000000	 5.397057   
931.000000	 5.377888   
930.000000	 5.377674   
929.000000	 5.371236   
928.000000	 5.335783   
927.000000	 5.307793   
926.000000	 5.329442   
925.000000	 5.379772   
924.000000	 5.416989   
923.000000	 5.456185   
922.000000	 5.523610   
921.000000	 5.597448   
920.000000	 5.648112   
919.000000	 5.692911   
918.000000	 5.739307   
917.000000	 5.756664   
916.000000	 5.737519   
915.000000	 5.719590   
914.000000	 5.701446   
913.000000	 5.645084   
912.000000	 5.581521   
911.000000	 5.606961   
910.000000	 5.742478   
909.000000	 5.913162   
908.000000	 6.078219   
907.000000	 6.273674   
906.000000	 6.517910   
905.000000	 6.787133   
904.000000	 7.079935   
903.000000	 7.411050   
902.000000	 7.745122   
901.000000	 8.031105   
900.000000	 8.274102   
899.000000	 8.506369   
898.000000	 8.707475   
897.000000	 8.825969   
896.000000	 8.847808   
895.000000	 8.802199   
894.000000	 8.709549   
893.000000	 8.568620   
892.000000	 8.371567   
891.000000	 8.120536   
890.000000	 7.823085   
889.000000	 7.492017   
888.000000	 7.138204   
887.000000	 6.775021   
886.000000	 6.421661   
885.000000	 6.102347   
884.000000	 5.829167   
883.000000	 5.596351   
882.000000	 5.384612   
881.000000	 5.177807   
880.000000	 4.983639   
879.000000	 4.833197   
878.000000	 4.735493   
877.000000	 4.652571   
876.000000	 4.554104   
875.000000	 4.473209   
874.000000	 4.444742   
873.000000	 4.431962   
872.000000	 4.380917   
871.000000	 4.312801   
870.000000	 4.269409   
869.000000	 4.235506   
868.000000	 4.190874   
867.000000	 4.177999   
866.000000	 4.221010   
865.000000	 4.267764   
864.000000	 4.284453   
863.000000	 4.316282   
862.000000	 4.380059   
861.000000	 4.413485   
860.000000	 4.386997   
859.000000	 4.354095   
858.000000	 4.341936   
857.000000	 4.309511   
856.000000	 4.248714   
855.000000	 4.214072   
854.000000	 4.223251   
853.000000	 4.226899   
852.000000	 4.195094   
851.000000	 4.153227   
850.000000	 4.124736   
849.000000	 4.108238   
848.000000	 4.105234   
847.000000	 4.112124   
846.000000	 4.100465   
845.000000	 4.056143   
844.000000	 4.015493   
843.000000	 4.018044   
842.000000	 4.050493   
841.000000	 4.072833   
840.000000	 4.072999   
839.000000	 4.062104   
838.000000	 4.045844   
837.000000	 4.029512   
836.000000	 4.028105   
835.000000	 4.047536   
834.000000	 4.070162   
833.000000	 4.072666   
832.000000	 4.054641   
831.000000	 4.040479   
830.000000	 4.050254   
829.000000	 4.074215   
828.000000	 4.089879   
827.000000	 4.097437   
826.000000	 4.109263   
825.000000	 4.112172   
824.000000	 4.084897   
823.000000	 4.044747   
822.000000	 4.025721   
821.000000	 4.021787   
820.000000	 4.006934   
819.000000	 3.990817   
818.000000	 3.995251   
817.000000	 4.003429   
816.000000	 3.995656   
815.000000	 3.998470   
814.000000	 4.036378   
813.000000	 4.079580   
812.000000	 4.096460   
811.000000	 4.106283   
810.000000	 4.127097   
809.000000	 4.134440   
808.000000	 4.119753   
807.000000	 4.114580   
806.000000	 4.117083   
805.000000	 4.086470   
804.000000	 4.039740   
803.000000	 4.045844   
802.000000	 4.100179   
801.000000	 4.126334   
800.000000	 4.113793   
799.000000	 4.123401   
798.000000	 4.156494   
797.000000	 4.156994   
796.000000	 4.134559   
795.000000	 4.146385   
794.000000	 4.176902   
793.000000	 4.171347   
792.000000	 4.152941   
791.000000	 4.179549   
790.000000	 4.230213   
789.000000	 4.247140   
788.000000	 4.239010   
787.000000	 4.245185   
786.000000	 4.253792   
785.000000	 4.234027   
784.000000	 4.203581   
783.000000	 4.204249   
782.000000	 4.241275   
781.000000	 4.285669   
780.000000	 4.313397   
779.000000	 4.321408   
778.000000	 4.319739   
777.000000	 4.319834   
776.000000	 4.329252   
775.000000	 4.351735   
774.000000	 4.382705   
773.000000	 4.403281   
772.000000	 4.399633   
771.000000	 4.389572   
770.000000	 4.398536   
769.000000	 4.417085   
768.000000	 4.423141   
767.000000	 4.430627   
766.000000	 4.459023   
765.000000	 4.484033   
764.000000	 4.487395   
763.000000	 4.506850   
762.000000	 4.554748   
761.000000	 4.560804   
760.000000	 4.493737   
759.000000	 4.444670   
758.000000	 4.483366   
757.000000	 4.542255   
756.000000	 4.553008   
755.000000	 4.560446   
754.000000	 4.598355   
753.000000	 4.608964   
752.000000	 4.581093   
751.000000	 4.596018   
750.000000	 4.660606   
749.000000	 4.675126   
748.000000	 4.621291   
747.000000	 4.596114   
746.000000	 4.625105   
745.000000	 4.626441   
744.000000	 4.578423   
743.000000	 4.550600   
742.000000	 4.561638   
741.000000	 4.562211   
740.000000	 4.549336   
739.000000	 4.561662   
738.000000	 4.584097   
737.000000	 4.573321   
736.000000	 4.545068   
735.000000	 4.540395   
734.000000	 4.546856   
733.000000	 4.527521   
732.000000	 4.491066   
731.000000	 4.471325   
730.000000	 4.475069   
729.000000	 4.482817   
728.000000	 4.487872   
727.000000	 4.501533   
726.000000	 4.532003   
725.000000	 4.566597   
724.000000	 4.590010   
723.000000	 4.612970   
722.000000	 4.657006   
721.000000	 4.712748   
720.000000	 4.760575   
719.000000	 4.830574   
718.000000	 4.976201   
717.000000	 5.186247   
716.000000	 5.398297   
715.000000	 5.591821   
714.000000	 5.779266   
713.000000	 5.926585   
712.000000	 5.989480   
711.000000	 5.997395   
710.000000	 5.995965   
709.000000	 5.958366   
708.000000	 5.866050   
707.000000	 5.792093   
706.000000	 5.782747   
705.000000	 5.755519   
704.000000	 5.643892   
703.000000	 5.516862   
702.000000	 5.443143   
701.000000	 5.370974   
700.000000	 5.260896   
699.000000	 5.176138   
698.000000	 5.145215   
697.000000	 5.094695   
696.000000	 5.004858   
695.000000	 4.956293   
694.000000	 4.967188   
693.000000	 4.954123   
692.000000	 4.894042   
691.000000	 4.856395   
690.000000	 4.858446   
689.000000	 4.846358   
688.000000	 4.822134   
687.000000	 4.838752   
686.000000	 4.882526   
685.000000	 4.892635   
684.000000	 4.876065   
683.000000	 4.881739   
682.000000	 4.901313   
681.000000	 4.896283   
680.000000	 4.881477   
679.000000	 4.891991   
678.000000	 4.915142   
677.000000	 4.917573   
676.000000	 4.904651   
675.000000	 4.901361   
674.000000	 4.910087   
673.000000	 4.917645   
672.000000	 4.927706   
671.000000	 4.959034   
670.000000	 5.013489   
669.000000	 5.057835   
668.000000	 5.061411   
667.000000	 5.048561   
666.000000	 5.073738   
665.000000	 5.141210   
664.000000	 5.210542   
663.000000	 5.275177   
662.000000	 5.360031   
661.000000	 5.449247   
660.000000	 5.514526   
659.000000	 5.590987   
658.000000	 5.716228   
657.000000	 5.837631   
656.000000	 5.907845   
655.000000	 5.998635   
654.000000	 6.177449   
653.000000	 6.363892   
652.000000	 6.464815   
651.000000	 6.529784   
650.000000	 6.622815   
649.000000	 6.679344   
648.000000	 6.641554   
647.000000	 6.576967   
646.000000	 6.531691   
645.000000	 6.437706   
644.000000	 6.285881   
643.000000	 6.193447   
642.000000	 6.202864   
641.000000	 6.209015   
640.000000	 6.159186   
639.000000	 6.120824   
638.000000	 6.110501   
637.000000	 6.059527   
636.000000	 5.971717   
635.000000	 5.921125   
634.000000	 5.894279   
633.000000	 5.819511   
632.000000	 5.730724   
631.000000	 5.720090   
630.000000	 5.766487   
629.000000	 5.773615   
628.000000	 5.735635   
627.000000	 5.720973   
626.000000	 5.743527   
625.000000	 5.759596   
624.000000	 5.754828   
623.000000	 5.750393   
622.000000	 5.754470   
621.000000	 5.753231   
620.000000	 5.742692   
619.000000	 5.740547   
618.000000	 5.760693   
617.000000	 5.777812   
616.000000	 5.758810   
615.000000	 5.731534   
614.000000	 5.757379   
613.000000	 5.824017   
612.000000	 5.860710   
611.000000	 5.867004   
610.000000	 5.906438   
609.000000	 5.973029   
608.000000	 6.003642   
607.000000	 6.016421   
606.000000	 6.083154   
605.000000	 6.183433   
604.000000	 6.245040   
603.000000	 6.287336   
602.000000	 6.359982   
601.000000	 6.409382   
600.000000	 6.377887   
599.000000	 6.339931   
598.000000	 6.369543   
597.000000	 6.392335   
596.000000	 6.331992   
595.000000	 6.260085   
594.000000	 6.248807   
593.000000	 6.237673   
592.000000	 6.185293   
591.000000	 6.168818   
590.000000	 6.208491   
589.000000	 6.196832   
588.000000	 6.104016   
587.000000	 6.044769   
586.000000	 6.065654   
585.000000	 6.077504   
584.000000	 6.050658   
583.000000	 6.065273   
582.000000	 6.137418   
581.000000	 6.192684   
580.000000	 6.222987   
579.000000	 6.291460   
578.000000	 6.387662   
577.000000	 6.444954   
576.000000	 6.473541   
575.000000	 6.535863   
574.000000	 6.627655   
573.000000	 6.710386   
572.000000	 6.807637   
571.000000	 6.966376   
570.000000	 7.166481   
569.000000	 7.347106   
568.000000	 7.480311   
567.000000	 7.566666   
566.000000	 7.588744   
565.000000	 7.513833   
564.000000	 7.341909   
563.000000	 7.131600   
562.000000	 6.955265   
561.000000	 6.825113   
560.000000	 6.707572   
559.000000	 6.611061   
558.000000	 6.578373   
557.000000	 6.589770   
556.000000	 6.580209   
555.000000	 6.556415   
554.000000	 6.569886   
553.000000	 6.588697   
552.000000	 6.549572   
551.000000	 6.507062   
550.000000	 6.547784   
549.000000	 6.613564   
548.000000	 6.599497   
547.000000	 6.552052   
546.000000	 6.560230   
545.000000	 6.572628   
544.000000	 6.524229   
543.000000	 6.500935   
542.000000	 6.568717   
541.000000	 6.618404   
540.000000	 6.570291   
539.000000	 6.539130   
538.000000	 6.616401   
537.000000	 6.708455   
536.000000	 6.745648   
535.000000	 6.813549   
534.000000	 6.944060   
533.000000	 7.022666   
532.000000	 7.004237   
531.000000	 6.984162   
530.000000	 6.994080   
529.000000	 6.964397   
528.000000	 6.916069   
527.000000	 6.955671   
526.000000	 7.068991   
525.000000	 7.135534   
524.000000	 7.139182   
523.000000	 7.169890   
522.000000	 7.248616   
521.000000	 7.319045   
520.000000	 7.381343   
519.000000	 7.483053   
518.000000	 7.614874   
517.000000	 7.719802   
516.000000	 7.785654   
515.000000	 7.851648   
514.000000	 7.948803   
513.000000	 8.063054   
512.000000	 8.162093   
511.000000	 8.243608   
510.000000	 8.343863   
509.000000	 8.499789   
508.000000	 8.713507   
507.000000	 8.977580   
506.000000	 9.272050   
505.000000	 9.536695   
504.000000	 9.717035   
503.000000	 9.859037   
502.000000	 10.050654  
501.000000	 10.272073  
500.000000	 10.417628  
499.000000	 10.447859  
498.000000	 10.366535  
497.000000	 10.101079  
496.000000	 9.612607   
495.000000	 9.061765   
494.000000	 8.638143   
493.000000	 8.306217   
492.000000	 7.950305   
491.000000	 7.624435   
490.000000	 7.417130   
489.000000	 7.237458   
488.000000	 7.003259   
487.000000	 6.828546   
486.000000	 6.793236   
485.000000	 6.758213   
484.000000	 6.628704   
483.000000	 6.535363   
482.000000	 6.562495   
481.000000	 6.587219   
480.000000	 6.543469   
479.000000	 6.553173   
478.000000	 6.659865   
477.000000	 6.739449   
476.000000	 6.753158   
475.000000	 6.818962   
474.000000	 6.968164   
473.000000	 7.094287   
472.000000	 7.164263   
471.000000	 7.252907   
470.000000	 7.369375   
469.000000	 7.458281   
468.000000	 7.546401   
467.000000	 7.711601   
466.000000	 7.944393   
465.000000	 8.186936   
464.000000	 8.450627   
463.000000	 8.775997   
462.000000	 9.120845   
461.000000	 9.387969   
460.000000	 9.530019   
459.000000	 9.581065   
458.000000	 9.593152   
457.000000	 9.578990   
456.000000	 9.526181   
455.000000	 9.463167   
454.000000	 9.442448   
453.000000	 9.449219   
452.000000	 9.413242   
451.000000	 9.341096   
450.000000	 9.301733   
449.000000	 9.271216   
448.000000	 9.159111   
447.000000	 8.997297   
446.000000	 8.892679   
445.000000	 8.808493   
444.000000	 8.629846   
443.000000	 8.410787   
442.000000	 8.287429   
441.000000	 8.211779   
440.000000	 8.055710   
439.000000	 7.877039   
438.000000	 7.789897   
437.000000	 7.713603   
436.000000	 7.541966   
435.000000	 7.383465   
434.000000	 7.353305   
433.000000	 7.340574   
432.000000	 7.235169   
431.000000	 7.146406   
430.000000	 7.162880   
429.000000	 7.165145   
428.000000	 7.076859   
427.000000	 7.020330   
426.000000	 7.051253   
425.000000	 7.040905   
424.000000	 6.945776   
423.000000	 6.896185   
422.000000	 6.926012   
421.000000	 6.911087   
420.000000	 6.824731   
419.000000	 6.774663   
418.000000	 6.769990   
417.000000	 6.714057   
416.000000	 6.624102   
415.000000	 6.611323   
414.000000	 6.672215   
413.000000	 6.710052   
412.000000	 6.725573   
411.000000	 6.803154   
410.000000	 6.956195   
409.000000	 7.129216   
408.000000	 7.305669   
407.000000	 7.514452   
406.000000	 7.759284   
405.000000	 8.010959   
404.000000	 8.246612   
403.000000	 8.473634   
402.000000	 8.707547   
401.000000	 8.933591   
400.000000	 9.119319   
399.000000	 9.272456   
398.000000	 9.416770   
397.000000	 9.497952   
396.000000	 9.434080   
395.000000	 9.269738   
394.000000	 9.119820   
393.000000	 8.965611   
392.000000	 8.720707   
391.000000	 8.467793   
390.000000	 8.366870   
389.000000	 8.364629   
388.000000	 8.304047   
387.000000	 8.240771   
386.000000	 8.320546   
385.000000	 8.461427   
384.000000	 8.518600   
383.000000	 8.593344   
382.000000	 8.823537   
381.000000	 9.081864   
380.000000	 9.230422   
379.000000	 9.401130   
378.000000	 9.697246   
377.000000	 9.928703   
376.000000	 9.950518   
375.000000	 9.924411   
374.000000	 9.981513   
373.000000	 9.993648   
372.000000	 9.903907   
371.000000	 9.886837   
370.000000	 10.005545  
369.000000	 10.086464  
368.000000	 10.062384  
367.000000	 10.062217  
366.000000	 10.093164  
365.000000	 9.988236   
364.000000	 9.712696   
363.000000	 9.407472   
362.000000	 9.121346   
361.000000	 8.779239   
360.000000	 8.396553   
359.000000	 8.081483   
358.000000	 7.857489   
357.000000	 7.667922   
356.000000	 7.510018   
355.000000	 7.422065   
354.000000	 7.386922   
353.000000	 7.347440   
352.000000	 7.295918   
351.000000	 7.285070   
350.000000	 7.357549   
349.000000	 7.475686   
348.000000	 7.567214   
347.000000	 7.632350   
346.000000	 7.740259   
345.000000	 7.876396   
344.000000	 7.945346   
343.000000	 7.952547   
342.000000	 8.016681   
341.000000	 8.151531   
340.000000	 8.269238   
339.000000	 8.404779   
338.000000	 8.662843   
337.000000	 8.955454   
336.000000	 9.123706   
335.000000	 9.267473   
334.000000	 9.581041   
333.000000	 9.952759   
332.000000	 10.151958  
331.000000	 10.256814  
330.000000	 10.468530  
329.000000	 10.693454  
328.000000	 10.765647  
327.000000	 10.818338  
326.000000	 11.014533  
325.000000	 11.189484  
324.000000	 11.165070  
323.000000	 11.075830  
322.000000	 11.049914  
321.000000	 10.926032  
320.000000	 10.606980  
319.000000	 10.280942  
318.000000	 10.052990  
317.000000	 9.766197   
316.000000	 9.382724   
315.000000	 9.099578   
314.000000	 8.956956   
313.000000	 8.756470   
312.000000	 8.456993   
311.000000	 8.239817   
310.000000	 8.144259   
309.000000	 8.012938   
308.000000	 7.814455   
307.000000	 7.679843   
306.000000	 7.632732   
305.000000	 7.565879   
304.000000	 7.460403   
303.000000	 7.394027   
302.000000	 7.385778   
301.000000	 7.385492   
300.000000	 7.386231   
299.000000	 7.426261   
298.000000	 7.518267   
297.000000	 7.622027   
296.000000	 7.700347   
295.000000	 7.773494   
294.000000	 7.887482   
293.000000	 8.006119   
292.000000	 8.042716   
291.000000	 8.027338   
290.000000	 8.089280   
289.000000	 8.219385   
288.000000	 8.275461   
287.000000	 8.262205   
286.000000	 8.325529   
285.000000	 8.443593   
284.000000	 8.470058   
283.000000	 8.470129   
282.000000	 8.617258   
281.000000	 8.802723   
280.000000	 8.802556   
279.000000	 8.732271   
278.000000	 8.839654   
277.000000	 9.013605   
276.000000	 9.019255   
275.000000	 8.988070   
274.000000	 9.135532   
273.000000	 9.300780   
272.000000	 9.273171   
271.000000	 9.229707   
270.000000	 9.355497   
269.000000	 9.458065   
268.000000	 9.380412   
267.000000	 9.351611   
266.000000	 9.530234   
265.000000	 9.697270   
264.000000	 9.725451   
263.000000	 9.831714   
262.000000	 10.120844  
261.000000	 10.397434  
260.000000	 10.615658  
259.000000	 10.983467  
258.000000	 11.512589  
257.000000	 11.955475  
256.000000	 12.247467  
255.000000	 12.550902  
254.000000	 12.854456  
253.000000	 12.948107  
252.000000	 12.786293  
251.000000	 12.516236  
250.000000	 12.193632  
249.000000	 11.760711  
248.000000	 11.248373  
247.000000	 10.781526  
246.000000	 10.414552  
245.000000	 10.103344  
244.000000	 9.805703   
243.000000	 9.557938   
242.000000	 9.414505   
241.000000	 9.347939   
240.000000	 9.264349   
239.000000	 9.175205   
238.000000	 9.184551   
237.000000	 9.259033   
236.000000	 9.230065   
235.000000	 9.111762   
234.000000	 9.100699   
233.000000	 9.190726   
232.000000	 9.173059   
231.000000	 9.058427   
230.000000	 9.047579   
229.000000	 9.077620   
228.000000	 8.915805   
227.000000	 8.663105   
226.000000	 8.593225   
225.000000	 8.595395   
224.000000	 8.388733   
223.000000	 8.107352   
222.000000	 8.031630   
221.000000	 8.010601   
220.000000	 7.795238   
219.000000	 7.585072   
218.000000	 7.608199   
217.000000	 7.611346   
216.000000	 7.363605   
215.000000	 7.147336   
214.000000	 7.201218   
213.000000	 7.253909   
212.000000	 7.109403   
211.000000	 7.048749   
210.000000	 7.229280   
209.000000	 7.349443   
208.000000	 7.264399   
207.000000	 7.254171   
206.000000	 7.433462   
205.000000	 7.544636   
204.000000	 7.503533   
203.000000	 7.522606   
202.000000	 7.611966   
201.000000	 7.526922   
200.000000	 7.241225   
199.000000	 6.964945   
198.000000	 6.717610   
197.000000	 6.329154   
196.000000	 5.802369   
195.000000	 5.310869   
194.000000	 4.900383   
193.000000	 4.473471   
192.000000	 4.000401   
191.000000	 3.566217   
190.000000	 3.226661   
189.000000	 2.923011   
188.000000	 2.564930   
187.000000	 2.188181   
186.000000	 1.919221   
185.000000	 1.738548   
184.000000	 1.479434   
183.000000	 1.150202   
182.000000	 0.956988   
181.000000	 0.891351   
180.000000	 0.715541   
179.000000	 0.450778   
178.000000	 0.367736   
177.000000	 0.419688   
176.000000	 0.304436   
175.000000	 0.096750   
174.000000	 0.129413   
173.000000	 0.292563   
172.000000	 0.217485   
171.000000	 0.031280   
170.000000	 0.097775   
169.000000	 0.245952   
168.000000	 0.113964   
167.000000	 -0.079345  
166.000000	 0.018262   
165.000000	 0.148153   
164.000000	 -0.018906  
163.000000	 -0.173902  
162.000000	 -0.004863  
161.000000	 0.146770   
160.000000	 -0.009346  
159.000000	 -0.110578  
158.000000	 0.092363   
157.000000	 0.207304   
156.000000	 0.005221   
155.000000	 -0.124835  
154.000000	 0.017809   
153.000000	 0.079154   
152.000000	 -0.074124  
151.000000	 -0.095534  
150.000000	 0.097990   
149.000000	 0.157499   
148.000000	 0.002145   
147.000000	 -0.062632  
146.000000	 0.029754   
145.000000	 0.032091   
144.000000	 -0.083041  
143.000000	 -0.095939  
142.000000	 0.012826   
141.000000	 0.053477   
140.000000	 -0.013685  
139.000000	 -0.050806  
138.000000	 -0.001621  
137.000000	 0.044441   
136.000000	 0.015974   
135.000000	 -0.028061  
134.000000	 0.011157   
133.000000	 0.085020   
132.000000	 0.040555   
131.000000	 -0.080108  
130.000000	 -0.051379  
129.000000	 0.100636   
128.000000	 0.083160   
127.000000	 -0.095558  
126.000000	 -0.096750  
125.000000	 0.072574   
124.000000	 0.051975   
123.000000	 -0.109648  
122.000000	 -0.021696  
121.000000	 0.195860   
120.000000	 0.082564   
119.000000	 -0.199437  
118.000000	 -0.129580  
117.000000	 0.115180   
116.000000	 0.016927   
115.000000	 -0.196290  
114.000000	 -0.032448  
113.000000	 0.188875   
112.000000	 -0.016212  
111.000000	 -0.236415  
110.000000	 0.019788   
109.000000	 0.279378   
108.000000	 0.042176   
107.000000	 -0.208568  
106.000000	 -0.007486  
105.000000	 0.163745   
104.000000	 -0.071763  
103.000000	 -0.199556  
102.000000	 0.076651   
101.000000	 0.202059   
100.000000	 -0.071072  
99.000000	  -0.182414  
98.000000	  0.074768   
97.000000	  0.171041   
96.000000	  -0.045990  
95.000000	  -0.091266  
94.000000	  0.123977   
93.000000	  0.141263   
92.000000	  -0.092959  
91.000000	  -0.150132  
90.000000	  0.023889   
89.000000	  0.068616   
88.000000	  -0.066804  
87.000000	  -0.099158  
86.000000	  0.017786   
85.000000	  0.063586   
84.000000	  -0.024747  
83.000000	  -0.080943  
82.000000	  -0.002098  
81.000000	  0.087952   
80.000000	  0.017118   
79.000000	  -0.132489  
78.000000	  -0.099992  
77.000000	  0.080490   
76.000000	  0.070714   
75.000000	  -0.119495  
74.000000	  -0.084304  
73.000000	  0.141096   
72.000000	  0.059914   
71.000000	  -0.244331  
70.000000	  -0.162720  
69.000000	  0.180006   
68.000000	  0.082969   
67.000000	  -0.277113  
66.000000	  -0.130963  
65.000000	  0.258517   
64.000000	  0.056099   
63.000000	  -0.363230  
62.000000	  -0.102972  
61.000000	  0.347328   
60.000000	  0.053215   
59.000000	  -0.381684  
58.000000	  -0.020599  
57.000000	  0.411748   
56.000000	  0.003147   
55.000000	  -0.401425  
54.000000	  0.069570   
53.000000	  0.470638   
52.000000	  -0.014519  
51.000000	  -0.360298  
50.000000	  0.162386   
49.000000	  0.463700   
48.000000	  -0.074124  
47.000000	  -0.314188  
46.000000	  0.244998   
45.000000	  0.445151   
44.000000	  -0.109100  
43.000000	  -0.283312  
42.000000	  0.209903   
41.000000	  0.293755   
40.000000	  -0.211405  
39.000000	  -0.285577  
38.000000	  0.183606   
37.000000	  0.250887   
36.000000	  -0.167322  
35.000000	  -0.239753  
34.000000	  0.118350   
33.000000	  0.216531   
32.000000	  -0.062203  
31.000000	  -0.176477  
30.000000	  0.060820   
29.000000	  0.239825   
28.000000	  0.041460   
27.000000	  -0.236535  
26.000000	  -0.074672  
25.000000	  0.317311   
24.000000	  0.150322   
23.000000	  -0.420665  
22.000000	  -0.275564  
21.000000	  0.445485   
20.000000	  0.225949   
19.000000	  -0.628614  
18.000000	  -0.338077  
17.000000	  0.678586   
16.000000	  0.502967   
15.000000	  -0.878453  
14.000000	  -0.244927  
13.000000	  1.292228   
12.000000	  0.144767   
11.000000	  -1.601719  
10.000000	  0.145483   
9.000000	   2.223896   
8.000000	   -0.184965  
7.000000	   -3.436470  
6.000000	   0.750708   
5.000000	   23.773074  
4.000000	   95.287871  
3.000000	   248.938179 
2.000000	   462.619566 
1.000000	   633.530330 
0.000000	   649.173498 

