-109.4312057495117                 120.0041	
-106.1265182495117                 113.42849	
-102.8180694580078                 105.93635	
-99.51454162597656                 107.37724	
-96.21158599853516                 109.13319	
-92.90488433837891                 111.90768	
-89.60308837890625                 118.90217	
-86.29753875732422                 114.7496	
-82.99690246582031                 123.10732	
-79.69684600830078                 125.69829	
-76.39736938476562                 122.94741	
-73.09413909912109                 129.54149	
-69.79581451416016                 119.87974	
-66.49806976318359                 130.80438	
-63.20090484619141                 130.58478	
-59.89999008178711                 126.38033	
-56.60397720336914                 136.02101	
-53.30854034423828                 135.4695	
-50.0136833190918                  129.64862	
-46.71940231323242                 136.13823	
-43.42569732666016                 140.74954	
-40.132568359375                   142.53062	
-36.84001541137695                 140.48158	
-33.54804229736328                 140.93193	
-30.25664138793945                 141.38931	
-26.96149826049805                 151.89668	
-23.67125129699707                 160.79794	
-20.38589477539062                 183.12479	
-17.09679794311523                 275.34674	
-13.80827522277832                 698.48511	
-10.52032852172852                 1567.4795	
-7.232955932617188                 1830.4249	
-3.946158409118652                 1238.7177	
-0.6599354147911072                227.4722	
2.625713109970093                  898.43414	
5.910787105560303                  1591.2904	
9.195286750793457                  1403.866	
12.47490406036377                  756.0965	
15.75825691223145                  305.56775	
19.04103660583496                  186.44003	
22.3232421875                      161.8342	
25.60056686401367                  146.55434	
28.88162612915039                  145.66698	
32.16211318969727                  148.21721	
35.4420280456543                   151.62106	
38.71706390380859                  152.55197	
41.99583435058594                  154.8506	
45.26972579956055                  149.50455	
48.5473518371582                   142.8175	
51.82440567016602                  139.8838	
55.09658432006836                  136.27078	
58.37249374389648                  133.2244	
61.64353179931641                  125.86792	
64.91829681396484                  125.39636	
68.18820190429688                  128.07022	
71.46182250976562                  125.79395	
74.73058319091797                  123.54812	
78.00306701660156                  116.62977	
81.27068328857422                  115.08975	
84.54202270507812                  115.4466	
87.80850219726562                  107.64482	
91.07441711425781                  112.73425	
94.34404754638672                  107.01113	
97.60881805419922                  102.25874	
100.8730239868164                  97.746246	
104.1409454345703                  104.36358	
107.4040145874023                  93.879951	
110.6665115356445                  98.254089	
113.932731628418                   92.129868	
117.194091796875                   94.433701	
120.4548873901367                  93.380943	
123.7151184082031                  95.699883	
126.9747772216797                  91.826324	
130.2381439208984                  88.642319	
133.4966735839844                  92.989151	
136.754638671875                   97.483269	
140.0120239257812                  94.813782	
143.2688446044922                  89.434021	
146.5251007080078                  98.381935	
149.7808074951172                  100.45396	
153.0359191894531                  100.28394	
156.2904815673828                  95.690186	
159.5444793701172                  97.503159	
162.7979125976562                  93.50853	
166.0507659912109                  104.94853	
169.3030700683594                  104.10444	
172.5548095703125                  98.02404	
175.8059692382812                  98.539421	
179.0565795898438                  100.12647	
182.3066101074219                  101.37576	
185.5560913085938                  98.822662	
188.8049926757812                  104.05214	
192.049072265625                   107.97675	
195.2968444824219                  103.3141	
198.5440673828125                  110.61803	
201.7907257080078                  105.27563	
205.0368041992188                  105.35776	
208.278076171875                   104.32523	
211.5230255126953                  111.69603	
214.7674255371094                  108.43922	
218.0070037841797                  103.08923	
221.2502746582031                  114.10417	
224.4929962158203                  114.51794	
227.7308807373047                  113.29411	
230.9724578857422                  109.38887	
234.2134857177734                  117.40774	
237.4496917724609                  102.13698	
240.6895904541016                  107.71766	
243.9246826171875                  117.16791	
247.1634521484375                  116.88163	
250.3974151611328                  120.08219	
253.6350708007812                  117.78152	
256.867919921875                   119.53636	
260.1044311523438                  119.78064	
263.3361511230469                  119.56228	
266.5715637207031                  126.28205	
269.8021850585938                  117.15028	
273.0322265625                     115.00677	
276.2659301757812                  129.23338	
279.494873046875                   119.93497	
282.7232360839844                  119.11385	
285.9552917480469                  106.30967	
289.1825256347656                  125.90797	
292.4092102050781                  114.42281	
295.6353454589844                  128.32027	
298.8651428222656                  112.23438	
302.0901794433594                  130.39409	
305.3146362304688                  121.0776	
308.5385131835938                  114.68739	
311.7618713378906                  112.49171	
314.9888916015625                  112.00281	
318.2111206054688                  124.96529	
321.4327697753906                  123.07335	
324.6538696289062                  121.22569	
327.8744506835938                  126.17005	
331.0944213867188                  128.01962	
334.3138732910156                  118.59978	
337.5327453613281                  140.53419	
340.7510986328125                  139.92352	
343.9688720703125                  121.48734	
347.1860656738281                  136.27449	
350.4027404785156                  128.22655	
353.6188354492188                  140.28586	
356.8343811035156                  139.44876	
360.0493774414062                  144.95499	
363.2638244628906                  150.3351	
366.4734802246094                  158.88567	
369.6867980957031                  148.35167	
372.8995666503906                  169.07376	
376.1117858886719                  173.8999	
379.3234558105469                  171.03165	
382.5303649902344                  178.93401	
385.7409057617188                  175.60614	
388.950927734375                   177.05209	
392.1603698730469                  175.68343	
395.3650512695312                  183.27748	
398.5733947753906                  195.16905	
401.7769470214844                  193.94344	
404.9841918945312                  208.23633	
408.1908874511719                  196.87883	
411.3927917480469                  216.02774	
414.5983581542969                  214.0825	
417.7991638183594                  217.08734	
421.003662109375                   221.97847	
424.2075805664062                  222.15323	
427.40673828125                    229.5957	
430.6053161621094                  238.64012	
433.8075866699219                  238.52008	
437.0050964355469                  256.71317	
440.2062683105469                  252.73897	
443.4026794433594                  243.9247	
446.6027221679688                  253.30878	
449.7980346679688                  254.99782	
452.9927673339844                  255.25169	
456.1911926269531                  265.72345	
459.3848266601562                  253.10268	
462.5779418945312                  272.98776	
465.7746887207031                  284.20987	
468.9667053222656                  272.24365	
472.1581726074219                  261.33838	
475.3490600585938                  277.36322	
478.5394287109375                  264.45483	
481.7334289550781                  276.65747	
484.9226989746094                  272.34216	
488.1114196777344                  281.84021	
491.299560546875                   279.79071	
494.4871826171875                  273.28806	
497.6742553710938                  284.87778	
500.8607788085938                  277.1402	
504.0467529296875                  256.70804	
507.232177734375                   264.01248	
510.4170532226562                  272.47183	
513.6013793945312                  271.33139	
516.78515625                       257.81387	
519.9683837890625                  270.15073	
523.151123046875                   274.82767	
526.333251953125                   251.73418	
529.5148315429688                  282.24994	
532.6958618164062                  276.25415	
535.8764038085938                  269.26624	
539.0563354492188                  282.92828	
542.2357788085938                  264.99185	
545.4104614257812                  262.34134	
548.5888061523438                  278.06747	
551.7665405273438                  256.7334	
554.9437866210938                  265.9281	
558.1162719726562                  269.9657	
561.2924194335938                  270.55716	
564.468017578125                   267.86383	
567.64306640625                    266.64789	
570.8134155273438                  249.84323	
573.9873657226562                  255.98006	
577.1566162109375                  262.6687	
580.3295288085938                  269.20895	
583.5018310546875                  257.59662	
586.66943359375                    269.90594	
589.8406982421875                  265.61978	
593.0072021484375                  267.77863	
596.1773681640625                  253.20772	
599.3428344726562                  267.62848	
602.5119018554688                  256.01559	
605.67626953125                    252.94987	
608.84423828125                    250.03355	
612.007568359375                   279.14639	
615.1702880859375                  267.78809	
618.336669921875                   267.74478	
621.498291015625                   253.50839	
624.66357421875                    265.28549	
627.8241577148438                  266.99417	
630.9841918945312                  259.98639	
634.1436767578125                  269.55722	
637.3067626953125                  263.80191	
640.4652099609375                  266.00772	
643.623046875                      283.75201	
646.7803955078125                  263.6058	
649.9413452148438                  264.44031	
653.0975952148438                  269.93225	
656.2532958984375                  268.61948	
659.408447265625                   284.14618	
662.5631103515625                  287.14871	
665.7172241210938                  272.48868	
668.8707275390625                  271.72836	
672.0237426757812                  267.48044	
675.17626953125                    290.54852	
678.3281860351562                  285.31686	
681.4796142578125                  284.10727	
684.6304321289062                  277.33212	
687.78076171875                    274.69708	
690.9305419921875                  278.60654	
694.079833984375                   281.58792	
697.228515625                      284.06781	
700.376708984375                   278.29605	
703.5243530273438                  280.33298	
706.6714477539062                  291.42242	
709.8179931640625                  282.86246	
712.9598999023438                  283.20901	
716.1053466796875                  276.07169	
719.2503051757812                  276.63937	
722.3947143554688                  290.20102	
725.5344848632812                  279.34326	
728.6777954101562                  278.27557	
731.8206176757812                  271.63953	
734.958740234375                   283.51953	
738.1004638671875                  283.70456	
741.24169921875                    277.10165	
744.3782348632812                  271.58942	
747.5183715820312                  290.15811	
750.65380859375                    274.65033	
753.7928466796875                  267.02069	
756.931396484375                   267.67157	
760.0652465820312                  274.53427	
763.2026977539062                  286.02127	
766.3355102539062                  268.25092	
769.471923828125                   285.37103	
772.6036376953125                  277.86914	
775.7348022460938                  264.66388	
778.8695678710938                  267.97818	
781.9996948242188                  248.82904	
785.1334228515625                  272.6907	
788.2625122070312                  266.1456	
791.3910522460938                  243.03094	
794.5231323242188                  255.12311	
797.650634765625                   264.21436	
800.7775268554688                  249.78966	
803.9039306640625                  243.96577	
807.033935546875                   245.08153	
810.1592407226562                  246.19275	
813.2840576171875                  260.79135	
816.4083251953125                  244.82278	
819.5321044921875                  234.04036	
822.6552734375                     228.90758	
825.7821044921875                  217.90547	
828.9042358398438                  226.12747	
832.02587890625                    225.80376	
835.14697265625                    226.62428	
838.2675170898438                  224.18622	
841.3875732421875                  208.68893	
844.5070190429688                  210.31195	
847.6260375976562                  232.69527	
850.7444458007812                  205.80339	
853.8623657226562                  214.84337	
856.979736328125                   200.06389	
860.0966186523438                  198.23897	
863.2088012695312                  187.61147	
866.3245849609375                  194.86023	
869.4398803710938                  199.11349	
872.5546264648438                  182.97983	
875.6688232421875                  183.69449	
878.7825317382812                  187.34886	
881.8915405273438                  173.31918	
885.004150390625                   171.08752	
888.1162719726562                  154.6747	
891.2237548828125                  174.28735	
894.3347778320312                  162.10188	
897.4453125                        160.59515	
900.5512084960938                  163.28706	
903.66064453125                    154.29462	
906.7695922851562                  151.35767	
909.8739013671875                  163.30571	
912.9817504882812                  153.31635	
916.0850219726562                  153.71907	
919.1918334960938                  146.80559	
922.2940673828125                  140.0697	
925.3998413085938                  141.58105	
928.5009765625                     138.42088	
931.605712890625                   143.4754	
934.705810546875                   117.01028	
937.8095092773438                  111.44031	
940.9085693359375                  113.56557	
944.0111694335938                  111.29761	
947.1091918945312                  117.16165	
950.2066650390625                  121.77278	
953.3077392578125                  108.439
956.4041748046875                  135.21921	
959.5000610351562                  117.8308	
962.595458984375                   108.63708	
965.6943969726562                  117.18916	
968.7887573242188                  95.268829	
971.882568359375                   117.62247	
974.975830078125                   117.46037	
978.068603515625                   101.99973	
981.160888671875                   95.49308	
984.2566528320312                  113.00359	
987.347900390625                   97.141869	
990.4385375976562                  90.836914	
993.5287475585938                  110.91871	
996.6183471679688                  98.26387	
999.7074584960938                  102.11592	
1002.796081542969                  90.617149	
1005.884155273438                  92.345985	
1008.9716796875                    91.593094	
1012.058715820312                  82.363976	
1015.145263671875                  86.773079	
1018.231201171875                  103.30084	
1021.312622070312                  93.973709	
1024.397583007812                  84.16291	
1027.482055664062                  101.3339	
1030.56591796875                   77.716103	
1033.649291992188                  87.885788	
1036.732177734375                  90.087669	
1039.810424804688                  88.679359	
1042.892211914062                  82.362328	
1045.973510742188                  82.605858	
1049.05029296875                   88.336288	
1052.130493164062                  83.261932	
1055.210327148438                  79.92231	
1058.285522460938                  86.770287	
1061.364135742188                  86.600319	
1064.4423828125                    80.693008	
1067.515991210938                  89.549561	
1070.593139648438                  84.579872	
1073.665649414062                  79.06649	
1076.741821289062                  77.717094	
1079.813354492188                  89.009857	
1082.888427734375                  74.653801	
1085.958984375                     74.466675	
1089.032958984375                  77.369514	
1092.102416992188                  72.373924	
1095.175537109375                  73.324066	
1098.243896484375                  97.442108	
1101.311889648438                  72.737427	
1104.38330078125                   72.66729	
1107.4501953125                    77.252037	
1110.5166015625                    67.33297	
1113.58642578125                   74.593185	
1116.65185546875                   78.704361	
1119.716674804688                  68.806938	
1122.781005859375                  88.505287	
1125.848754882812                  77.591507	
1128.912109375                     79.496185	
1131.974853515625                  81.862297	
1135.037109375                     68.75473	
1138.098876953125                  77.453751	
1141.160034179688                  78.026054	
1144.220825195312                  83.513634	
1147.281005859375                  68.440643	
1150.340698242188                  67.925438	
1153.40380859375                   72.017151	
1156.462524414062                  66.015869	
1159.520629882812                  60.54958	
1162.57421875                      68.216637	
1165.63134765625                   78.603989	
1168.68798828125                   62.027424	
1171.744018554688                  67.435158	
1174.799560546875                  61.943356	
1177.854614257812                  57.897404	
1180.9091796875                    72.343765	
1183.963256835938                  75.031273	
1187.0126953125                    69.750496	
1190.065795898438                  69.164589	
1193.118286132812                  68.649231	
1196.170288085938                  72.516556	
1199.217651367188                  70.78083	
1202.268676757812                  66.960083	
1205.319091796875                  66.664024	
1208.364990234375                  70.12471	
1211.414428710938                  75.013405	
1214.46337890625                   57.999687	
1217.507690429688                  75.62645	
1220.5556640625                    74.580826	
1223.598999023438                  70.335342	
1226.645874023438                  58.552715	
1229.692260742188                  66.425156	
1232.734008789062                  74.352257	
1235.779418945312                  62.62352	
1238.820190429688                  72.47731	
1241.860473632812                  70.207596	
1244.904296875                     61.453808	
1247.943603515625                  60.475834	
1250.986450195312                  77.121117	
1254.024658203125                  64.884323	
1257.062377929688                  59.587429	
1260.103637695312                  64.013184	
1263.140380859375                  66.052788	
1266.176635742188                  59.222481	
1269.21240234375                   78.964455	
1272.251586914062                  71.844803	
1275.286376953125                  51.862381	
1278.320556640625                  68.818062	
1281.354248046875                  58.828091	
1284.387451171875                  66.77317	
1287.424072265625                  61.869537	
1290.456298828125                  59.63763	
1293.487915039062                  63.193913	
1296.519165039062                  61.161793	
1299.5498046875                    65.534096	
1302.579956054688                  63.142677	
1305.609497070312                  68.525589	
1308.638671875                     69.125275	
1311.667358398438                  60.118694	
1314.695434570312                  55.831966	
1317.723022460938                  65.390671	
1320.750122070312                  61.865479	
1323.776733398438                  63.198021	
1326.798828125                     71.546143	
1329.824462890625                  63.697605	
1332.849609375                     70.312691	
1335.874145507812                  62.332245	
1338.898193359375                  68.946892	
1341.917846679688                  55.387962	
1344.94091796875                   67.270546	
1347.963500976562                  67.295059	
1350.985473632812                  51.875603	
1354.003051757812                  68.817017	
1357.024169921875                  58.036018	
1360.044677734375                  56.036171	
1363.060791015625                  76.838707	
1366.080322265625                  52.577972	
1369.095336914062                  65.481247	
1372.113891601562                  64.4813
1375.1279296875                    57.855408	
1378.1455078125                    52.59362	
1381.162475585938                  59.525627	
1384.175048828125                  53.271648	
1387.187133789062                  56.39399	
1390.20263671875                   67.62767	
1393.213623046875                  61.415863	
1396.228149414062                  68.864983	
1399.238159179688                  52.103863	
1402.247680664062                  61.362175	
1405.2607421875                    68.587151	
1408.269287109375                  65.34462	
1411.27734375                      58.569126	
1414.288818359375                  60.223293	
1417.295776367188                  60.240437	
1420.302368164062                  62.49369	
1423.308349609375                  58.253029	
1426.31396484375                   62.084183	
1429.322875976562                  59.526306	
1432.327514648438                  59.613651	
1435.331420898438                  65.426796	
1438.3349609375                    58.924236	
1441.338012695312                  61.781277	
1444.340576171875                  69.995804	
1447.342651367188                  60.695702	
1450.344116210938                  57.129219	
1453.34521484375                   56.671272	
1456.345703125                     58.510124	
1459.345703125                     64.584
1462.34521484375                   52.146675	
1465.344360351562                  58.109226	
1468.342895507812                  62.271683	
1471.340942382812                  55.958145	
1474.338500976562                  61.607609	
1477.33154296875                   64.822159	
1480.328125                        52.387371	
1483.324096679688                  56.866474	
1486.319702148438                  63.543301	
1489.314697265625                  63.530582	
1492.305297851562                  63.141598	
1495.299438476562                  62.723396	
1498.29296875                      73.997231	
1501.282104492188                  65.166557	
1504.274658203125                  70.331436	
1507.266723632812                  63.981731	
1510.25439453125                   73.961021	
1513.245483398438                  69.012253	
1516.232055664062                  62.266361	
1519.22216796875                   53.709942	
1522.207763671875                  74.619881	
1525.196899414062                  63.276886	
1528.181518554688                  70.472183	
1531.169677734375                  60.569523	
1534.1533203125                    77.35585	
1537.140502929688                  62.164928	
1540.123168945312                  62.234867	
1543.109252929688                  65.283699	
1546.090942382812                  72.190887	
1549.072143554688                  75.363968	
1552.056884765625                  69.488205	
1555.036987304688                  74.073441	
1558.016723632812                  62.488289	
1560.995971679688                  63.295151	
1563.978637695312                  70.003609	
1566.956909179688                  78.697914	
1569.9345703125                    69.571083	
1572.911865234375                  80.263145	
1575.888671875                     77.544548	
1578.864868164062                  62.64571	
1581.840698242188                  71.47422	
1584.819946289062                  84.448692	
1587.794677734375                  84.43985	
1590.768920898438                  88.443077	
1593.742797851562                  76.862106	
1596.716064453125                  87.368095	
1599.68896484375                   81.991295	
1602.661254882812                  91.695061	
1605.633056640625                  97.401352	
1608.600463867188                  85.970078	
1611.5712890625                    96.275307	
1614.541748046875                  92.338303	
1617.511596679688                  84.919647	
1620.48095703125                   93.807587	
1623.449829101562                  99.945938	
1626.414306640625                  101.30343	
1629.382202148438                  101.94525	
1632.349731445312                  98.54892	
1635.316650390625                  101.91563	
1638.279174804688                  109.3593	
1641.2451171875                    118.5214	
1644.210571289062                  104.03575	
1647.171630859375                  117.20424	
1650.136108398438                  117.99756	
1653.10009765625                   103.46166	
1656.059692382812                  106.99535	
1659.022705078125                  111.32517	
1661.981323242188                  114.31171	
1664.943359375                     106.31
1667.901000976562                  105.277
1670.862060546875                  105.71001	
1673.818725585938                  100.13311	
1676.77880859375                   109.17558	
1679.734497070312                  106.38777	
1682.689697265625                  105.82705	
1685.648315429688                  89.459419	
1688.6025390625                    97.274368	
1691.556274414062                  85.940285	
1694.513427734375                  89.568634	
1697.466186523438                  84.019737	
1700.41845703125                   91.500305	
1703.370239257812                  89.302612	
1706.325439453125                  86.140251	
1709.276245117188                  89.850258	
1712.2265625                       78.229927	
1715.176391601562                  83.864731	
1718.125854492188                  71.314049	
1721.07470703125                   74.481339	
1724.023071289062                  72.268867	
1726.970947265625                  70.378319	
1729.918334960938                  74.588936	
1732.865356445312                  73.025909	
1735.811767578125                  70.888191	
1738.757690429688                  70.28038	
1741.703247070312                  65.103378	
1744.648193359375                  64.478775	
1747.5927734375                    60.065029	
1750.536743164062                  55.507233	
1753.480346679688                  73.909599	
1756.42333984375                   65.677658	
1759.365966796875                  62.947685	
1762.30419921875                   64.289871	
1765.245727539062                  67.448303	
1768.186889648438                  54.193245	
1771.127563476562                  57.841969	
1774.063842773438                  66.818588	
1777.003540039062                  60.702545	
1779.942749023438                  61.706898	
1782.87744140625                   59.94104	
1785.815795898438                  52.633533	
1788.753540039062                  58.80534	
1791.686889648438                  58.209229	
1794.623657226562                  56.28907	
1797.556030273438                  58.640293	
1800.491943359375                  49.718529	
1803.42333984375                   58.336792	
1806.358154296875                  54.519848	
1809.288696289062                  57.201458	
1812.222534179688                  53.737362	
1815.152099609375                  50.516502	
1818.085083007812                  66.459137	
1821.013549804688                  56.820576	
1823.941650390625                  55.094151	
1826.873168945312                  57.133858	
1829.80029296875                   58.768196	
1832.726928710938                  51.558796	
1835.656982421875                  61.659737	
1838.582641601562                  62.722923	
1841.507934570312                  56.291077	
1844.4326171875                    56.094109	
1847.356811523438                  64.205254	
1850.280639648438                  71.053574	
1853.207763671875                  61.715179	
1856.130615234375                  60.350323	
1859.052978515625                  68.747101	
1861.974853515625                  49.864353	
1864.896240234375                  52.171509	
1867.817138671875                  51.420322	
1870.737548828125                  54.594772	
1873.657470703125                  57.429047	
1876.576904296875                  66.671936	
1879.495971679688                  59.183865	
1882.414428710938                  56.013119	
1885.33251953125                   57.742844	
1888.25                            60.229492	
1891.163208007812                  64.838737	
1894.079833984375                  49.807224	
1896.995971679688                  56.202606	
1899.91162109375                   52.584278	
1902.826782226562                  54.502716	
1905.737548828125                  54.069962	
1908.65185546875                   55.552143	
1911.565551757812                  59.166367	
1914.474975585938                  59.555386	
1917.387817382812                  59.462193	
1920.300048828125                  55.498913	
1923.2080078125                    50.492432	
1926.119384765625                  60.13443	
1929.026489257812                  58.356766	
1931.936889648438                  57.834282	
1934.842895507812                  68.79248	
1937.75244140625                   57.91917	
1940.657470703125                  59.078278	
1943.566040039062                  63.676189	
1946.47021484375                   60.514114	
1949.377807617188                  67.727707	
1952.281005859375                  58.164875	
1955.187622070312                  59.607334	
1958.089965820312                  55.462524	
1960.99169921875                   68.354935	
1963.89306640625                   60.756161	
1966.7978515625                    56.601482	
1969.6982421875                    56.465237	
1972.59814453125                   54.83392	
1975.49755859375                   64.994949	
1978.400390625                     63.402138	
1981.298950195312                  64.515678	
1984.196899414062                  64.979263	
1987.094482421875                  57.514362	
1989.991577148438                  53.865677	
1992.88818359375                   64.589516	
1995.784301757812                  63.448196	
1998.680053710938                  56.069607	
2001.5751953125                    60.304146	
2004.469970703125                  61.61549	
2007.364135742188                  58.524593	
2010.257934570312                  61.757046	
2013.151245117188                  55.906086	
2016.044189453125                  58.612709	
2018.9365234375                    63.342297	
2021.828369140625                  63.893051	
2024.719848632812                  63.483166	
2027.61083984375                   64.631599	
2030.497436523438                  54.424938	
2033.387451171875                  55.482841	
2036.276977539062                  55.545506	
2039.166137695312                  58.648197	
2042.050903320312                  59.747337	
2044.939086914062                  61.397057	
2047.82666015625                   57.197014	
2050.7099609375                    68.66301	
2053.596923828125                  54.308865	
2056.479248046875                  55.212044	
2059.364990234375                  57.58157	
2062.250244140625                  50.842747	
2065.13134765625                   58.966515	
2068.015869140625                  51.962925	
2070.895751953125                  55.821915	
2073.779296875                     61.031982	
2076.658447265625                  52.73941	
2079.537109375                     50.306534	
2082.419189453125                  60.237617	
2085.296875                        59.318962	
2088.177978515625                  45.087414	
2091.054931640625                  60.961296	
2093.93115234375                   54.263702	
2096.80712890625                   58.56781	
2099.686279296875                  58.440586	
2102.561279296875                  62.196346	
2105.435791015625                  63.441387	
2108.309814453125                  58.556526	
2111.187255859375                  64.498924	
2114.060302734375                  51.356583	
2116.932861328125                  52.001778	
2119.80517578125                   49.461182	
2122.6767578125                    53.974564	
2125.548095703125                  61.692184	
2128.418701171875                  52.125717	
2131.2890625                       64.287758	
2134.158935546875                  49.412392	
2137.0283203125                    49.12748	
2139.897216796875                  61.467274	
2142.765625                        52.822319	
2145.633544921875                  61.877995	
2148.5009765625                    59.923489	
2151.3681640625                    51.22374	
2154.23095703125                   58.611557	
2157.096923828125                  53.13908	
2159.962646484375                  64.731392	
2162.827880859375                  59.245411	
2165.692626953125                  60.800205	
2168.552978515625                  54.8312
2171.416748046875                  53.427067	
2174.280029296875                  59.873505	
2177.13916015625                   58.465714	
2180.00146484375                   43.832382	
2182.863525390625                  61.842922	
2185.72119140625                   54.021862	
2188.582275390625                  50.059284	
2191.43896484375                   53.923847	
2194.299072265625                  62.89534	
2197.15478515625                   54.216476	
2200.01416015625                   55.027206	
2202.868896484375                  55.365295	
2205.727294921875                  54.770172	
2208.5810546875                    55.938251	
2211.4345703125                    61.390026	
2214.29150390625                   54.472084	
2217.14404296875                   56.328003	
2219.996337890625                  51.758957	
2222.851806640625                  54.326218	
2225.702880859375                  51.775433	
2228.5537109375                    50.72287	
2231.404052734375                  53.293915	
2234.257568359375                  58.90554	
2237.10693359375                   57.140278	
2239.9560546875                    56.386974	
2242.804443359375                  50.262867	
2245.65234375                      47.375919	
2248.5                             58.087379	
2251.346923828125                  55.087212	
2254.193603515625                  52.170052	
2257.043701171875                  57.603432	
2259.889404296875                  46.393162	
2262.730712890625                  50.929291	
2265.575439453125                  55.842617	
2268.419921875                     54.009666	
2271.263671875                     46.61121	
2274.107177734375                  56.415337	
2276.9501953125                    51.05809	
2279.79248046875                   57.886005	
2282.634521484375                  56.401455	
2285.476318359375                  44.923733	
2288.3134765625                    53.120316	
2291.154296875                     60.17186	
2293.994384765625                  47.767635	
2296.830322265625                  53.027817	
2299.669677734375                  47.410397	
2302.508544921875                  46.02776	
2305.343017578125                  62.472019	
2308.180908203125                  45.76989	
2311.0185546875                    47.973408	
2313.851806640625                  48.963245	
2316.688232421875                  48.381363	
2319.5205078125                    48.238293	
2322.356201171875                  46.576965	
2325.1875                          51.541847	
2328.0224609375                    53.77113	
2330.852783203125                  51.143154	
2333.686767578125                  54.533367	
2336.516357421875                  54.776424	
2339.345458984375                  51.472393	
2342.177734375                     59.267239	
2345.006103515625                  52.434002	
2347.833740234375                  51.016529	
2350.664794921875                  56.410217	
2353.49169921875                   50.599331	
2356.318115234375                  50.328831	
2359.14404296875                   55.240963	
2361.969482421875                  47.178978	
2364.79833984375                   44.550934	
2367.623046875                     53.531067	
2370.447021484375                  54.764679	
2373.270751953125                  42.596977	
2376.093994140625                  47.418556	
2378.916748046875                  50.350616	
2381.739013671875                  44.738621	
2384.56103515625                   54.225399	
2387.38232421875                   50.36158	
2390.203369140625                  51.058006	
2393.02392578125                   50.228275	
2395.843994140625                  53.090904	
2398.66357421875                   47.946507	
2401.47900390625                   48.668468	
2404.297607421875                  46.288361	
2407.115966796875                  54.588215	
2409.93359375                      50.473114	
2412.7509765625                    55.920994	
2415.564208984375                  50.17144	
2418.380615234375                  45.76112	
2421.196533203125                  52.902012	
2424.00830078125                   43.934231	
2426.823486328125                  52.932659	
2429.63818359375                   49.835106	
2432.448486328125                  44.116497	
2435.262451171875                  46.189491	
2438.07568359375                   43.649609	
2440.884765625                     55.519691	
2443.697021484375                  43.282818	
2446.50537109375                   49.980797	
2449.31689453125                   54.002247	
2452.1240234375                    48.848907	
2454.930908203125                  41.460094	
2457.740966796875                  45.117836	
2460.546875                        48.167202	
2463.3525390625                    51.190697	
2466.161376953125                  47.450764	
2468.9658203125                    43.677635	
2471.77001953125                   49.079899	
2474.577392578125                  49.99921	
2477.380615234375                  48.883095	
2480.18359375                      38.506592	
2482.98583984375                   46.69207	
2485.787841796875                  43.722233	
2488.593017578125                  53.910004	
2491.39404296875                   64.325218	
2494.194580078125                  47.327026	
2496.99462890625                   41.357765	
2499.79443359375                   53.625874	
2502.593505859375                  46.704132	
2505.392333984375                  52.701859	
2508.190673828125                  55.0797
2510.988525390625                  53.114109	
2513.785888671875                  45.289944	
2516.5830078125                    47.050499	
2519.37939453125                   46.886082	
2522.171875                        56.458809	
2524.967529296875                  52.397457	
2527.7626953125                    45.809483	
2530.557373046875                  51.968369	
2533.351806640625                  44.426334	
2536.141845703125                  46.153687	
2538.935302734375                  46.393562	
2541.728271484375                  43.805138	
2544.51708984375                   39.560516	
2547.30908203125                   54.436081	
2550.100830078125                  42.248447	
2552.88818359375                   42.608994	
2555.678955078125                  45.811504	
2558.465576171875                  38.086956	
2561.25537109375                   49.860397	
2564.044921875                     49.099251	
2566.830078125                     51.242184	
2569.614990234375                  49.893394	
2572.403076171875                  43.155182	
2575.18701171875                   49.962219	
2577.97412109375                   43.595589	
2580.757080078125                  49.48315	
2583.539794921875                  41.822048	
2586.32568359375                   44.216461	
2589.107421875                     43.590359	
2591.888671875                     46.450802	
2594.673095703125                  44.961658	
2597.453369140625                  40.472141	
2600.2333984375                    46.814816	
2603.012939453125                  40.755329	
2605.7919921875                    48.283005	
2608.570556640625                  46.892376	
2611.3525390625                    50.062504	
2614.130126953125                  45.142422	
2616.907470703125                  53.431622	
2619.684326171875                  45.598679	
2622.460693359375                  44.235554	
2625.236572265625                  43.590538	
2628.01220703125                   50.911812	
2630.787109375                     44.952797	
2633.561767578125                  37.786282	
2636.3359375                       42.992367	
2639.10595703125                   40.972416	
2641.87939453125                   48.482281	
2644.65234375                      43.197109	
2647.424560546875                  47.040199	
2650.196533203125                  40.733288	
2652.964599609375                  50.919861	
2655.735595703125                  46.313164	
2658.50634765625                   53.975845	
2661.276611328125                  47.759487	
2664.04248046875                   50.272343	
2666.81201171875                   56.968006	
2669.5771484375                    47.057705	
2672.345703125                     42.622799	
2675.113525390625                  48.739674	
2677.87744140625                   43.210114	
2680.644775390625                  37.179146	
2683.40771484375                   48.174129	
2686.174072265625                  45.290268	
2688.93603515625                   41.753475	
2691.701416015625                  42.902805	
2694.462890625                     45.513657	
2697.2236328125                    44.468781	
2699.98779296875                   41.414974	
2702.74755859375                   45.731285	
2705.507080078125                  41.3018
2708.27001953125                   40.642941	
2711.028564453125                  42.700504	
2713.786865234375                  40.181923	
2716.54443359375                   47.049603	
2719.3017578125                    51.431808	
2722.0625                          37.772587	
2724.81884765625                   36.89687	
2727.574951171875                  43.01712	
2730.33056640625                   43.546597	
2733.085693359375                  50.071243	
2735.84033203125                   48.195007	
2738.5947265625                    46.346214	
2741.348388671875                  47.620136	
2744.101806640625                  43.105579	
2746.85498046875                   44.672096	
2749.607421875                     46.698639	
2752.359619140625                  43.74501	
2755.111083984375                  43.931274	
2757.8623046875                    42.67979	
2760.609375                        51.326401	
2763.35986328125                   47.378216	
2766.10986328125                   43.921883	
2768.859375                        42.828907	
2771.604736328125                  44.057201	
2774.353271484375                  43.236145	
2777.1015625                       49.051937	
2779.845458984375                  44.184639	
2782.5927734375                    49.631153	
2785.33984375                      44.953281	
2788.08251953125                   43.366169	
2790.82861328125                   51.280624	
2793.5703125                       48.024773	
2796.315673828125                  42.451836	
2799.056640625                     44.553928	
2801.801025390625                  40.433319	
2804.541015625                     41.651112	
2807.284423828125                  42.860657	
2810.02392578125                   47.212635	
2812.766357421875                  55.816814	
2815.5048828125                    45.132557	
2818.242919921875                  48.760136	
2820.98046875                      34.160126	
2823.72119140625                   50.129936	
2826.4580078125                    44.781193	
2829.1943359375                    40.759132	
2831.93017578125                   37.652493	
2834.669189453125                  40.305813	
2837.404296875                     44.736225	
2840.138671875                     39.201469	
2842.872802734375                  42.548611	
2845.606689453125                  45.402252	
2848.33984375                      40.691914	
2851.07275390625                   42.912624	
2853.80517578125                   50.320469	
2856.537109375                     36.815876	
2859.2685546875                    44.018387	
2861.999755859375                  38.952477	
2864.73046875                      40.96685	
2867.460693359375                  40.80143	
2870.190673828125                  37.690147	
2872.919921875                     42.818184	
2875.645263671875                  38.897503	
2878.373779296875                  39.772472	
2881.10205078125                   43.033737	
2883.82958984375                   39.952087	
2886.55322265625                   52.687637	
2889.280029296875                  38.774784	
2892.006591796875                  47.792377	
2894.728759765625                  39.443687	
2897.454345703125                  40.113823	
2900.179443359375                  43.41011	
2902.900390625                     45.838364	
2905.624755859375                  41.948227	
2908.344970703125                  34.853149	
2911.068359375                     41.501804	
2913.78759765625                   36.914288	
2916.51025390625                   44.762798	
2919.228759765625                  37.951576	
2921.950439453125                  39.369118	
2924.66796875                      37.80621	
2927.385009765625                  43.859749	
2930.10546875                      47.594738	
2932.82177734375                   40.083302	
2935.537841796875                  42.529274	
2938.253173828125                  43.499847	
2940.971923828125                  46.886143	
2943.6865234375                    38.791805	
2946.40087890625                   41.629131	
2949.114501953125                  31.10837	
2951.827880859375                  37.890331	
2954.54443359375                   41.768291	
2957.257080078125                  44.3027
2959.968994140625                  47.457726	
2962.6806640625                    45.10408	
2965.391845703125                  45.172112	
2968.102783203125                  49.834713	
2970.813232421875                  45.848591	
2973.523193359375                  32.132694	
2976.232666015625                  41.156948	
2978.93798828125                   39.017769	
2981.646728515625                  42.463043	
2984.35498046875                   44.734097	
2987.062744140625                  46.432732	
2989.770263671875                  43.185562	
2992.4736328125                    39.409431	
2995.18017578125                   43.001438	
2997.88623046875                   43.265942	
3000.592041015625                  42.410748	
3003.293701171875                  36.998432	
3005.99853515625                   46.384403	
3008.702880859375                  53.373592	
3011.4033203125                    49.25573	
3014.10693359375                   47.180733	
3016.806396484375                  43.274334	
3019.50927734375                   46.877827	
3022.2080078125                    53.774094	
3024.909912109375                  48.230129	
3027.607666015625                  49.494713	
3030.308837890625                  45.473812	
3033.005615234375                  47.832115	
3035.702392578125                  47.472229	
3038.402099609375                  42.529808	
3041.097900390625                  43.453949	
3043.793212890625                  47.719025	
3046.49169921875                   44.354591	
3049.186279296875                  49.183384	
3051.880126953125                  49.396858	
3054.573974609375                  50.214348	
3057.270751953125                  46.89315	
3059.963623046875                  45.255856	
3062.656005859375                  45.623314	
3065.347900390625                  56.845417	
3068.039306640625                  52.844971	
3070.73046875                      48.033737	
3073.421142578125                  55.845249	
3076.111572265625                  53.575024	
3078.80126953125                   49.853584	
3081.49072265625                   52.081821	
3084.1796875                       58.957497	
3086.868408203125                  51.778206	
3089.556640625                     61.944424	
3092.244384765625                  56.172047	
3094.927978515625                  50.602299	
3097.614990234375                  55.617229	
3100.301513671875                  50.124878	
3102.987548828125                  58.762791	
3105.669677734375                  61.564644	
3108.35498046875                   58.611786	
3111.039794921875                  63.500111	
3113.72412109375                   63.663425	
3116.404541015625                  62.650341	
3119.088134765625                  64.188858	
3121.767578125                     63.964355	
3124.450439453125                  62.924091	
3127.129150390625                  70.479927	
3129.81103515625                   61.587605	
3132.48876953125                   67.431747	
3135.169921875                     65.912949	
3137.846923828125                  64.340469	
3140.527099609375                  64.626503	
3143.203369140625                  73.801033	
3145.879150390625                  70.071381	
3148.55810546875                   67.998337	
3151.233154296875                  78.611076	
3153.90771484375                   75.079041	
3156.58544921875                   83.721886	
3159.259033203125                  75.078163	
3161.932373046875                  79.457634	
3164.605224609375                  77.889603	
3167.27783203125                   82.727707	
3169.953369140625                  79.078087	
3172.625                           78.802673	
3175.29638671875                   84.784401	
3177.967041015625                  77.508804	
3180.637451171875                  87.21328	
3183.3076171875                    92.580688	
3185.97705078125                   88.045235	
3188.646240234375                  91.721611	
3191.31494140625                   88.224396	
3193.983154296875                  90.141571	
3196.651123046875                  95.360985	
3199.31494140625                   91.006477	
3201.982177734375                  98.920578	
3204.64892578125                   101.98138	
3207.31494140625                   102.94379	
3209.98095703125                   100.7155	
3212.642822265625                  98.861755	
3215.3076171875                    97.507172	
3217.972412109375                  111.4454	
3220.6328125                       100.77027	
3223.296630859375                  112.4257	
3225.9599609375                    112.48259	
3228.619384765625                  115.89212	
3231.281982421875                  114.82982	
3233.9404296875                    109.27269	
3236.60205078125                   115.02824	
3239.259765625                     117.57122	
3241.920654296875                  117.18637	
3244.57763671875                   117.06237	
3247.23779296875                   123.0388	
3249.893798828125                  121.26665	
3252.54931640625                   124.01296	
3255.208251953125                  123.10133	
3257.863037109375                  126.74599	
3260.517333984375                  125.04895	
3263.17138671875                   127.86634	
3265.82861328125                   117.83483	
3268.48193359375                   129.60712	
3271.134521484375                  128.26146	
3273.786865234375                  134.39275	
3276.43896484375                   122.17091	
3279.09033203125                   130.72725	
3281.7451171875                    129.86908	
3284.395751953125                  125.82387	
3287.046142578125                  143.15863	
3289.696044921875                  136.87892	
3292.345458984375                  130.66415	
3294.99462890625                   143.45888	
3297.643310546875                  140.66748	
3300.2880859375                    136.20081	
3302.935791015625                  138.85114	
3305.583251953125                  136.17917	
3308.230224609375                  136.15047	
3310.876953125                     152.21494	
3313.523193359375                  140.56177	
3316.16552734375                   148.85785	
3318.810791015625                  144.31567	
3321.455810546875                  150.48401	
3324.096923828125                  157.37556	
3326.740966796875                  148.666
3329.384765625                     150.02969	
3332.024658203125                  160.06534	
3334.66748046875                   151.71942	
3337.306396484375                  154.63991	
3339.948486328125                  158.52438	
3342.586669921875                  147.3351	
3345.22802734375                   165.17625	
3347.865478515625                  156.05989	
3350.505859375                     159.21901	
3353.142578125                     159.17702	
3355.778564453125                  160.11534	
3358.41796875                      161.64275	
3361.05322265625                   166.61917	
3363.68798828125                   164.76176	
3366.326171875                     168.3718	
3368.960205078125                  164.81645	
3371.593994140625                  165.31915	
3374.227294921875                  160.06837	
3376.86376953125                   162.08725	
3379.49609375                      165.69911	
3382.128173828125                  170.58804	
3384.759765625                     167.49168	
3387.39111328125                   166.51227	
3390.02197265625                   164.76891	
3392.65234375                      162.96892	
3395.282470703125                  168.28345	
3397.912109375                     172.4821	
3400.541259765625                  174.47507	
3403.170166015625                  169.10466	
3405.798583984375                  173.15858	
3408.423095703125                  173.99933	
3411.050537109375                  174.99292	
3413.677978515625                  171.80833	
3416.3046875                       169.2458	
3418.93115234375                   173.47296	
3421.553466796875                  177.02055	
3424.17919921875                   171.36888	
3426.80419921875                   176.18889	
3429.425537109375                  172.68251	
3432.0498046875                    176.44269	
3434.673828125                     178.95526	
3437.2939453125                    165.00247	
3439.9169921875                    173.46735	
3442.536376953125                  166.83232	
3445.15869140625                   175.45567	
3447.777099609375                  170.16176	
3450.398681640625                  167.41762	
3453.016357421875                  167.20634	
3455.636962890625                  160.43689	
3458.25390625                      162.36848	
3460.870361328125                  159.50937	
3463.48974609375                   154.56294	
3466.10546875                      166.1358	
3468.720703125                     159.54803	
3471.33544921875                   150.3259	
3473.953369140625                  152.30504	
3476.5673828125                    155.43556	
3479.180908203125                  153.9086	
3481.794189453125                  149.16743	
3484.406982421875                  154.23738	
3487.019287109375                  143.54703	
3489.63134765625                   144.36084	
3492.242919921875                  145.90103	
3494.854248046875                  143.54501	
3497.465087890625                  141.74989	
3500.075439453125                  142.51645	
3502.685302734375                  136.34721	
3505.294921875                     138.6532	
3507.904052734375                  141.43703	
3510.512939453125                  134.78214	
3513.121337890625                  131.93552	
3515.729248046875                  142.5126	
3518.33349609375                   133.64806	
3520.940673828125                  135.56731	
3523.54736328125                   126.08826	
3526.150390625                     130.49284	
3528.75634765625                   123.49157	
3531.36181640625                   121.92398	
3533.963623046875                  129.03607	
3536.568359375                     122.73556	
3539.1728515625                    125.92238	
3541.773193359375                  117.15318	
3544.376953125                     116.16608	
3546.9765625                       113.17288	
3549.579345703125                  114.31209	
3552.17822265625                   113.86701	
3554.77685546875                   118.23865	
3557.37841796875                   115.31347	
3559.97607421875                   107.5153	
3562.576904296875                  113.95645	
3565.173828125                     101.05106	
3567.770263671875                  108.44808	
3570.366455078125                  100.24972	
3572.9658203125                    110.73967	
3575.56103515625                   96.113403	
3578.156005859375                  105.63344	
3580.75048828125                   102.33346	
3583.3447265625                    101.728
3585.938232421875                  96.736382	
3588.53173828125                   97.927696	
3591.124755859375                  103.62636	
3593.71728515625                   93.472458	
3596.309326171875                  93.382919	
3598.901123046875                  95.094917	
3601.492431640625                  97.130783	
3604.08349609375                   98.765991	
3606.674072265625                  86.287392	
3609.26416015625                   91.293724	
3611.85400390625                   89.854431	
3614.443359375                     86.928345	
3617.0322265625                    86.850906	
3619.617431640625                  84.542313	
3622.20556640625                   77.540695	
3624.79345703125                   80.351028	
3627.37744140625                   78.39505	
3629.96435546875                   78.155281	
3632.551025390625                  76.104645	
3635.1337890625                    72.181488	
3637.719482421875                  71.200294	
3640.301513671875                  73.067871	
3642.886474609375                  75.761772	
3645.4677734375                    69.95018	
3648.052001953125                  73.805489	
3650.63232421875                   63.344154	
3653.2158203125                    65.984032	
3655.79541015625                   68.095863	
3658.3779296875                    61.400181	
3660.956787109375                  54.440674	
3663.53515625                      62.366894	
3666.11328125                      56.307751	
3668.6943359375                    60.039574	
3671.271484375                     52.127266	
3673.848388671875                  52.499977	
3676.4248046875                    60.462448	
3679.00439453125                   49.755531	
3681.580078125                     45.184608	
3684.1552734375                    42.419304	
3686.730224609375                  47.740181	
3689.3046875                       42.492805	
3691.878662109375                  44.82782	
3694.452392578125                  45.314789	
3697.02587890625                   40.126526	
3699.5986328125                    44.709743	
3702.171142578125                  44.400459	
3704.743408203125                  41.513615	
3707.315185546875                  43.82021	
3709.883056640625                  39.617451	
3712.453857421875                  45.553146	
3715.0244140625                    38.424335	
3717.5947265625                    43.474121	
3720.160888671875                  38.312473	
3722.73046875                      41.872494	
3725.29931640625                   38.487251	
3727.864501953125                  37.959301	
3730.432861328125                  36.678688	
3733.000732421875                  39.985504	
3735.564697265625                  37.416992	
3738.131591796875                  35.495232	
3740.69482421875                   30.897699	
3743.26123046875                   34.391777	
3745.823486328125                  40.802517	
3748.38916015625                   38.678108	
3750.95068359375                   34.276302	
3753.515380859375                  35.936691	
3756.076171875                     34.646606	
3758.63671875                      35.590328	
3761.200439453125                  36.416027	
3763.760009765625                  36.804573	
3766.3193359375                    32.999687	
3768.878173828125                  33.727592	
3771.440185546875                  33.103149	
3773.998291015625                  34.523434	
3776.55615234375                   28.441612	
3779.113525390625                  33.093525	
3781.67041015625                   26.763601	
3784.22705078125                   27.601496	
3786.783203125                     37.203278	
3789.339111328125                  35.691502	
                                   